SpectraSuite Datei
++++++++++++++++++++++++++++++++++++
Datum: Mon Mar 09 11:22:33 CET 2020
Benutzer: Lichtquellen1
Dark-Spektrum vorhanden: Ja
Referenz-Spektrum vorhanden: Nein
Zahl der probierten Teilspektren: 1
Spektrometer: USB4F05832
Integrationszeit (usec): 2000000 (USB4F05832)
Spektren Durchschnitt berechnet: 2 (USB4F05832)
Boxcar Glättung: 0 (USB4F05832)
Dunkelstromkorrektur: Nein (USB4F05832)
Puls/Lampe aktiviert: Nein (USB4F05832)
Correct for Detector Non-linearity: Nein (USB4F05832)
Streulichtkorrektur: Nein (USB4F05832)
Anzahl Pixel in verarbeitetem Spektrum: 3648
>>>>>Begin Processed Spectral Data<<<<<
177,54	-50,18
177,75	-50,18
177,97	-50,18
178,19	37,89
178,41	39,94
178,63	-143,36
178,85	-21,50
179,07	-44,03
179,29	-72,70
179,51	14,34
179,73	-6,14
179,95	-73,73
180,17	-1,02
180,39	17,41
180,61	-47,10
180,83	-9,22
181,05	45,06
181,27	-10,24
181,49	-59,39
181,71	8,19
181,92	57,34
182,14	0,00
182,36	20,48
182,58	3,07
182,80	2,05
183,02	101,37
183,24	50,18
183,46	122,88
183,68	-26,62
183,90	76,80
184,12	4,10
184,34	30,72
184,56	39,94
184,78	59,39
185,00	39,94
185,21	34,82
185,43	16,38
185,65	59,39
185,87	52,22
186,09	-17,41
186,31	44,03
186,53	17,41
186,75	74,75
186,97	37,89
187,19	30,72
187,41	90,11
187,63	37,89
187,84	37,89
188,06	45,06
188,28	51,20
188,50	81,92
188,72	60,42
188,94	71,68
189,16	30,72
189,38	14,34
189,60	100,35
189,82	-12,29
190,03	53,25
190,25	71,68
190,47	151,55
190,69	54,27
190,91	70,65
191,13	-75,77
191,35	99,33
191,57	64,51
191,79	-70,65
192,01	-1,02
192,22	19,46
192,44	36,86
192,66	114,69
192,88	38,91
193,10	48,13
193,32	62,46
193,54	71,68
193,76	31,74
193,98	40,96
194,19	58,37
194,41	146,43
194,63	61,44
194,85	-2,05
195,07	31,74
195,29	61,44
195,51	-8,19
195,73	17,41
195,94	71,68
196,16	57,34
196,38	13,31
196,60	120,83
196,82	-63,49
197,04	55,30
197,26	-3,07
197,48	-45,06
197,69	81,92
197,91	-7,17
198,13	-30,72
198,35	113,66
198,57	-82,94
198,79	49,15
199,01	-4,10
199,22	-35,84
199,44	-11,26
199,66	2,05
199,88	105,47
200,10	52,22
200,32	35,84
200,54	-0,00
200,75	109,57
200,97	22,53
201,19	28,67
201,41	86,01
201,63	36,86
201,85	24,58
202,06	-1,02
202,28	8,19
202,50	7,17
202,72	-10,24
202,94	138,24
203,16	-53,25
203,38	49,15
203,59	4,10
203,81	-17,41
204,03	-53,25
204,25	7,17
204,47	15,36
204,69	32,77
204,90	-51,20
205,12	32,77
205,34	27,65
205,56	21,50
205,78	28,67
206,00	11,26
206,21	44,03
206,43	-16,38
206,65	-17,41
206,87	7,17
207,09	29,70
207,30	48,13
207,52	15,36
207,74	71,68
207,96	71,68
208,18	62,46
208,40	5,12
208,61	29,70
208,83	1,02
209,05	30,72
209,27	49,15
209,49	33,79
209,70	36,86
209,92	71,68
210,14	7,17
210,36	46,08
210,58	33,79
210,79	-31,74
211,01	37,89
211,23	154,62
211,45	87,04
211,67	24,58
211,88	41,98
212,10	59,39
212,32	53,25
212,54	-7,17
212,76	14,34
212,97	141,31
213,19	19,46
213,41	11,26
213,63	38,91
213,85	10,24
214,06	-12,29
214,28	-27,65
214,50	80,89
214,72	45,06
214,94	157,69
215,15	69,63
215,37	-30,72
215,59	-45,06
215,81	14,34
216,02	98,30
216,24	-8,19
216,46	-25,60
216,68	15,36
216,90	24,58
217,11	28,67
217,33	70,65
217,55	-18,43
217,77	65,54
217,98	15,36
218,20	116,73
218,42	19,46
218,64	61,44
218,85	5,12
219,07	64,51
219,29	82,94
219,51	64,51
219,73	54,27
219,94	51,20
220,16	72,70
220,38	-8,19
220,60	-38,91
220,81	5,12
221,03	12,29
221,25	47,10
221,47	35,84
221,68	-40,96
221,90	69,63
222,12	-17,41
222,34	55,30
222,55	86,01
222,77	-69,63
222,99	26,62
223,21	81,92
223,42	32,77
223,64	-2,05
223,86	11,26
224,08	38,91
224,29	67,58
224,51	21,50
224,73	43,01
224,94	-39,94
225,16	-6,14
225,38	75,77
225,60	-32,77
225,81	75,77
226,03	-13,31
226,25	93,18
226,47	80,89
226,68	82,94
226,90	-4,10
227,12	-68,61
227,33	40,96
227,55	-7,17
227,77	-3,07
227,99	109,57
228,20	39,94
228,42	185,34
228,64	51,20
228,86	89,09
229,07	57,34
229,29	87,04
229,51	108,54
229,72	92,16
229,94	61,44
230,16	16,38
230,38	79,87
230,59	73,73
230,81	0,00
231,03	107,52
231,24	32,77
231,46	67,58
231,68	39,94
231,89	-5,12
232,11	38,91
232,33	50,18
232,55	79,87
232,76	-17,41
232,98	-21,50
233,20	35,84
233,41	105,47
233,63	59,39
233,85	-73,73
234,06	-2,05
234,28	63,49
234,50	-2,05
234,71	57,34
234,93	66,56
235,15	28,67
235,37	53,25
235,58	109,57
235,80	99,33
236,02	-23,55
236,23	5,12
236,45	70,65
236,67	45,06
236,88	68,61
237,10	12,29
237,32	30,72
237,53	132,09
237,75	70,65
237,97	28,67
238,18	13,31
238,40	64,51
238,62	30,72
238,83	34,82
239,05	-31,74
239,27	47,10
239,48	-30,72
239,70	-1,02
239,92	22,53
240,13	63,49
240,35	63,49
240,57	26,62
240,78	88,06
241,00	43,01
241,22	64,51
241,43	39,94
241,65	19,46
241,87	-9,22
242,08	77,82
242,30	-27,65
242,52	52,22
242,73	41,98
242,95	122,88
243,16	-1,02
243,38	-95,23
243,60	106,49
243,81	45,06
244,03	73,73
244,25	-10,24
244,46	27,65
244,68	3,07
244,90	44,03
245,11	40,96
245,33	23,55
245,55	53,25
245,76	-46,08
245,98	97,28
246,19	9,22
246,41	3,07
246,63	21,50
246,84	-4,10
247,06	7,17
247,28	51,20
247,49	37,89
247,71	80,89
247,92	3,07
248,14	-35,84
248,36	-27,65
248,57	40,96
248,79	61,44
249,01	3,07
249,22	44,03
249,44	30,72
249,65	23,55
249,87	15,36
250,09	62,46
250,30	86,01
250,52	20,48
250,73	39,94
250,95	22,53
251,17	0,00
251,38	67,58
251,60	44,03
251,81	54,27
252,03	11,26
252,25	12,29
252,46	51,20
252,68	-23,55
252,89	55,30
253,11	55,30
253,33	7,17
253,54	3,07
253,76	-14,34
253,97	131,07
254,19	32,77
254,41	18,43
254,62	100,35
254,84	102,40
255,05	122,88
255,27	56,32
255,49	80,89
255,70	36,86
255,92	103,42
256,13	6,14
256,35	12,29
256,56	38,91
256,78	61,44
257,00	45,06
257,21	7,17
257,43	121,85
257,64	39,94
257,86	69,63
258,08	71,68
258,29	122,88
258,51	91,13
258,72	39,94
258,94	89,09
259,15	1,02
259,37	132,09
259,59	13,31
259,80	-6,14
260,02	-16,38
260,23	-36,86
260,45	31,74
260,66	-99,33
260,88	30,72
261,09	61,44
261,31	-26,62
261,53	-1,02
261,74	30,72
261,96	66,56
262,17	30,72
262,39	65,54
262,60	279,55
262,82	62,46
263,03	62,46
263,25	95,23
263,46	32,77
263,68	-53,25
263,90	7,17
264,11	-25,60
264,33	-23,55
264,54	56,32
264,76	13,31
264,97	106,49
265,19	20,48
265,40	92,16
265,62	-15,36
265,83	76,80
266,05	80,89
266,26	-56,32
266,48	106,49
266,70	76,80
266,91	2,05
267,13	9,22
267,34	11,26
267,56	44,03
267,77	-32,77
267,99	68,61
268,20	63,49
268,42	37,89
268,63	28,67
268,85	111,61
269,06	83,97
269,28	154,62
269,49	105,47
269,71	79,87
269,92	43,01
270,14	125,95
270,35	56,32
270,57	67,58
270,78	61,44
271,00	73,73
271,21	43,01
271,43	-13,31
271,64	122,88
271,86	93,18
272,07	80,89
272,29	38,91
272,50	12,29
272,72	24,58
272,93	120,83
273,15	77,82
273,36	13,31
273,58	212,99
273,79	76,80
274,01	1,02
274,22	80,89
274,44	-2,05
274,65	14,34
274,87	83,97
275,08	150,53
275,30	92,16
275,51	117,76
275,73	27,65
275,94	33,79
276,16	100,35
276,37	87,04
276,59	39,94
276,80	-31,74
277,02	45,06
277,23	106,49
277,45	38,91
277,66	83,97
277,88	25,60
278,09	70,65
278,30	21,50
278,52	96,25
278,73	14,34
278,95	157,69
279,16	52,22
279,38	49,15
279,59	95,23
279,81	100,35
280,02	110,59
280,24	71,68
280,45	-11,26
280,67	53,25
280,88	109,57
281,09	102,40
281,31	133,12
281,52	105,47
281,74	172,03
281,95	55,30
282,17	110,59
282,38	37,89
282,60	79,87
282,81	164,86
283,02	73,73
283,24	105,47
283,45	65,53
283,67	-8,19
283,88	115,71
284,10	174,08
284,31	33,79
284,53	28,67
284,74	135,17
284,95	135,17
285,17	141,31
285,38	56,32
285,60	69,63
285,81	161,79
286,03	63,49
286,24	130,05
286,45	172,03
286,67	93,18
286,88	134,14
287,10	94,21
287,31	123,90
287,53	61,44
287,74	89,09
287,95	139,26
288,17	58,37
288,38	121,85
288,60	56,32
288,81	163,84
289,02	88,06
289,24	151,55
289,45	92,16
289,67	102,40
289,88	145,41
290,10	98,30
290,31	140,29
290,52	48,13
290,74	9,22
290,95	106,49
291,17	135,17
291,38	55,30
291,59	99,33
291,81	107,52
292,02	122,88
292,24	168,96
292,45	78,85
292,66	90,11
292,88	101,37
293,09	129,02
293,31	82,94
293,52	24,58
293,73	77,82
293,95	120,83
294,16	80,89
294,37	60,42
294,59	154,62
294,80	158,72
295,02	9,22
295,23	118,78
295,44	86,01
295,66	144,38
295,87	165,89
296,09	164,86
296,30	104,45
296,51	145,41
296,73	113,66
296,94	89,09
297,15	60,42
297,37	60,42
297,58	80,89
297,79	62,46
298,01	105,47
298,22	118,78
298,44	129,02
298,65	98,30
298,86	51,20
299,08	66,56
299,29	140,29
299,50	93,18
299,72	106,49
299,93	27,65
300,14	64,51
300,36	77,82
300,57	112,64
300,79	137,21
301,00	3,07
301,21	91,13
301,43	-47,10
301,64	99,33
301,85	150,53
302,07	102,40
302,28	19,46
302,49	120,83
302,71	136,19
302,92	72,70
303,13	99,33
303,35	59,39
303,56	49,15
303,77	104,45
303,99	27,65
304,20	99,33
304,41	83,97
304,63	89,09
304,84	44,03
305,05	-4,10
305,27	110,59
305,48	3,07
305,69	48,13
305,91	106,49
306,12	163,84
306,33	-14,34
306,55	84,99
306,76	49,15
306,97	29,70
307,19	80,89
307,40	51,20
307,61	146,43
307,82	83,97
308,04	46,08
308,25	83,97
308,46	115,71
308,68	60,42
308,89	96,25
309,10	55,30
309,32	60,42
309,53	142,33
309,74	51,20
309,96	55,30
310,17	113,66
310,38	17,41
310,59	178,17
310,81	31,74
311,02	-45,06
311,23	81,92
311,45	108,54
311,66	123,90
311,87	5,12
312,09	72,70
312,30	129,02
312,51	46,08
312,72	4,10
312,94	88,06
313,15	50,18
313,36	93,18
313,58	31,74
313,79	48,13
314,00	61,44
314,21	21,50
314,43	-16,38
314,64	15,36
314,85	154,62
315,06	56,32
315,28	32,77
315,49	69,63
315,70	63,49
315,92	132,09
316,13	1,02
316,34	57,34
316,55	78,85
316,77	25,60
316,98	101,37
317,19	21,50
317,40	66,56
317,62	107,52
317,83	69,63
318,04	11,26
318,25	16,38
318,47	55,30
318,68	40,96
318,89	97,28
319,11	113,66
319,32	96,25
319,53	43,01
319,74	104,45
319,96	78,85
320,17	15,36
320,38	117,76
320,59	39,94
320,81	169,98
321,02	11,26
321,23	56,32
321,44	81,92
321,65	55,30
321,87	40,96
322,08	80,89
322,29	115,71
322,50	89,09
322,72	110,59
322,93	119,81
323,14	184,32
323,35	74,75
323,57	28,67
323,78	119,81
323,99	111,61
324,20	137,21
324,41	54,27
324,63	71,68
324,84	70,65
325,05	50,18
325,26	57,34
325,48	128,00
325,69	194,56
325,90	76,80
326,11	93,18
326,32	76,80
326,54	37,89
326,75	65,54
326,96	63,49
327,17	84,99
327,39	19,46
327,60	197,63
327,81	59,39
328,02	84,99
328,23	27,65
328,45	118,78
328,66	88,06
328,87	119,81
329,08	77,82
329,29	138,24
329,51	67,58
329,72	161,79
329,93	108,54
330,14	124,93
330,35	109,57
330,56	50,18
330,78	58,37
330,99	143,36
331,20	259,07
331,41	98,30
331,62	257,02
331,84	193,53
332,05	247,80
332,26	359,42
332,47	540,66
332,68	951,28
332,90	2083,81
333,11	3352,52
333,32	5318,57
333,53	7164,82
333,74	9006,97
333,95	9228,15
334,17	8665,98
334,38	7831,43
334,59	6809,50
334,80	5536,68
335,01	4532,15
335,22	4070,34
335,44	3847,11
335,65	3390,41
335,86	3269,58
336,07	2854,87
336,28	2523,10
336,49	2237,41
336,71	1948,64
336,92	1538,02
337,13	1212,40
337,34	833,52
337,55	562,17
337,76	413,69
337,97	307,20
338,19	137,21
338,40	202,75
338,61	91,13
338,82	151,55
339,03	134,14
339,24	67,58
339,45	117,76
339,67	30,72
339,88	108,54
340,09	139,26
340,30	116,73
340,51	69,63
340,72	62,46
340,93	123,90
341,15	31,74
341,36	178,17
341,57	114,69
341,78	102,40
341,99	103,42
342,20	118,78
342,41	52,22
342,62	123,90
342,84	9,22
343,05	15,36
343,26	71,68
343,47	86,01
343,68	52,22
343,89	139,26
344,10	104,45
344,31	8,19
344,53	94,21
344,74	103,42
344,95	100,35
345,16	65,53
345,37	35,84
345,58	-35,84
345,79	66,56
346,00	161,79
346,21	117,76
346,42	89,09
346,64	0,00
346,85	56,32
347,06	111,61
347,27	52,22
347,48	148,48
347,69	98,30
347,90	88,06
348,11	76,80
348,32	111,61
348,53	49,15
348,75	98,30
348,96	200,70
349,17	115,71
349,38	4,10
349,59	59,39
349,80	61,44
350,01	55,30
350,22	113,66
350,43	108,54
350,64	36,86
350,85	81,92
351,06	159,74
351,28	75,77
351,49	57,34
351,70	109,57
351,91	41,98
352,12	113,66
352,33	50,18
352,54	139,26
352,75	48,13
352,96	81,92
353,17	126,97
353,38	104,45
353,59	144,38
353,80	75,77
354,01	72,70
354,22	67,58
354,44	68,61
354,65	51,20
354,86	222,20
355,07	146,43
355,28	75,77
355,49	125,95
355,70	119,81
355,91	77,82
356,12	82,94
356,33	61,44
356,54	102,40
356,75	116,73
356,96	57,34
357,17	98,30
357,38	101,37
357,59	111,61
357,80	49,15
358,01	98,30
358,22	87,04
358,43	117,76
358,64	150,53
358,85	140,29
359,07	166,91
359,28	143,36
359,49	121,85
359,70	144,38
359,91	80,89
360,12	91,13
360,33	100,35
360,54	189,44
360,75	154,62
360,96	64,51
361,17	119,81
361,38	94,21
361,59	114,69
361,80	140,29
362,01	44,03
362,22	107,52
362,43	237,56
362,64	155,65
362,85	135,17
363,06	181,25
363,27	120,83
363,48	98,30
363,69	78,85
363,90	192,51
364,11	137,21
364,32	114,69
364,53	168,96
364,74	181,25
364,95	193,53
365,16	106,49
365,37	89,09
365,58	56,32
365,79	107,52
366,00	102,40
366,21	129,02
366,42	153,60
366,63	142,33
366,84	119,81
367,05	218,11
367,26	110,59
367,47	92,16
367,68	67,58
367,89	156,67
368,10	76,80
368,31	63,49
368,52	74,75
368,73	134,14
368,94	117,76
369,15	110,59
369,36	-130,05
369,57	203,77
369,78	132,09
369,99	80,89
370,20	54,27
370,40	96,25
370,61	38,91
370,82	51,20
371,03	114,69
371,24	145,41
371,45	116,73
371,66	94,21
371,87	114,69
372,08	165,89
372,29	82,94
372,50	12,29
372,71	9,22
372,92	71,68
373,13	130,05
373,34	97,28
373,55	53,25
373,76	121,85
373,97	97,28
374,18	106,49
374,39	98,30
374,60	154,62
374,81	114,69
375,01	121,85
375,22	92,16
375,43	100,35
375,64	116,73
375,85	92,16
376,06	92,16
376,27	-2,05
376,48	141,31
376,69	112,64
376,90	130,05
377,11	130,05
377,32	65,53
377,53	242,68
377,74	95,23
377,94	114,69
378,15	190,46
378,36	95,23
378,57	79,87
378,78	67,58
378,99	105,47
379,20	94,21
379,41	162,81
379,62	196,60
379,83	96,25
380,04	109,57
380,25	188,41
380,45	118,78
380,66	118,78
380,87	150,53
381,08	191,49
381,29	149,50
381,50	198,65
381,71	144,38
381,92	132,09
382,13	139,26
382,34	26,62
382,55	77,82
382,75	107,52
382,96	74,75
383,17	110,59
383,38	148,48
383,59	68,61
383,80	66,56
384,01	65,53
384,22	109,57
384,43	109,57
384,63	126,97
384,84	145,41
385,05	109,57
385,26	70,65
385,47	40,96
385,68	104,45
385,89	68,61
386,10	130,05
386,30	165,89
386,51	136,19
386,72	59,39
386,93	75,77
387,14	194,56
387,35	157,69
387,56	123,90
387,77	61,44
387,97	73,73
388,18	118,78
388,39	123,90
388,60	160,77
388,81	109,57
389,02	110,59
389,23	157,69
389,43	106,49
389,64	156,67
389,85	87,04
390,06	72,70
390,27	77,82
390,48	107,52
390,69	101,37
390,89	140,29
391,10	234,49
391,31	95,23
391,52	80,89
391,73	159,74
391,94	175,10
392,14	65,53
392,35	113,66
392,56	207,87
392,77	161,79
392,98	109,57
393,19	96,25
393,39	102,40
393,60	116,73
393,81	69,63
394,02	69,63
394,23	183,29
394,44	87,04
394,64	76,80
394,85	143,36
395,06	167,93
395,27	71,68
395,48	204,80
395,69	137,21
395,89	132,09
396,10	194,56
396,31	178,17
396,52	198,65
396,73	66,56
396,93	149,50
397,14	173,05
397,35	96,25
397,56	162,81
397,77	148,48
397,97	227,32
398,18	222,20
398,39	238,59
398,60	106,49
398,81	144,38
399,01	129,02
399,22	168,96
399,43	148,48
399,64	83,97
399,85	150,53
400,05	140,29
400,26	155,65
400,47	39,94
400,68	89,09
400,89	146,43
401,09	171,01
401,30	173,05
401,51	82,94
401,72	132,09
401,93	145,41
402,13	117,76
402,34	178,17
402,55	161,79
402,76	134,14
402,96	151,55
403,17	82,94
403,38	142,33
403,59	4,10
403,80	71,68
404,00	123,90
404,21	114,69
404,42	51,20
404,63	68,61
404,83	117,76
405,04	129,02
405,25	197,63
405,46	122,88
405,66	45,06
405,87	101,37
406,08	118,78
406,29	108,54
406,49	71,68
406,70	234,49
406,91	169,98
407,12	144,38
407,32	204,80
407,53	220,16
407,74	202,75
407,95	277,50
408,15	130,05
408,36	144,38
408,57	152,57
408,78	140,29
408,98	189,44
409,19	94,21
409,40	179,20
409,61	172,03
409,81	173,05
410,02	200,70
410,23	194,56
410,44	69,63
410,64	169,98
410,85	120,83
411,06	53,25
411,26	158,72
411,47	91,13
411,68	191,49
411,89	93,18
412,09	86,01
412,30	208,89
412,51	173,05
412,72	226,30
412,92	197,63
413,13	236,54
413,34	179,20
413,54	140,29
413,75	185,34
413,96	146,43
414,17	230,40
414,37	126,97
414,58	159,74
414,79	109,57
414,99	71,68
415,20	258,04
415,41	212,99
415,61	101,37
415,82	225,28
416,03	172,03
416,24	118,78
416,44	130,05
416,65	219,13
416,86	125,95
417,06	76,80
417,27	129,02
417,48	169,98
417,68	140,29
417,89	245,76
418,10	263,16
418,30	403,45
418,51	421,88
418,72	585,72
418,92	477,18
419,13	459,77
419,34	440,31
419,55	430,07
419,75	355,32
419,96	350,20
420,17	287,74
420,37	329,72
420,58	307,20
420,79	301,05
420,99	347,13
421,20	315,39
421,41	386,04
421,61	363,51
421,82	376,83
422,03	504,82
422,23	450,55
422,44	620,53
422,65	592,89
422,85	711,67
423,06	587,77
423,26	532,47
423,47	611,32
423,68	492,54
423,88	401,40
424,09	350,20
424,30	381,95
424,50	343,03
424,71	372,73
424,92	335,87
425,12	263,16
425,33	245,76
425,54	250,88
425,74	212,99
425,95	236,54
426,15	237,56
426,36	253,95
426,57	187,39
426,77	234,49
426,98	223,23
427,19	243,71
427,39	257,02
427,60	221,18
427,81	212,99
428,01	193,53
428,22	192,51
428,42	256,00
428,63	297,98
428,84	322,56
429,04	316,41
429,25	385,02
429,45	389,11
429,66	364,54
429,87	488,44
430,07	385,02
430,28	343,03
430,49	388,09
430,69	380,92
430,90	225,28
431,10	300,03
431,31	249,85
431,52	204,80
431,72	232,44
431,93	217,08
432,13	172,03
432,34	328,70
432,55	278,52
432,75	227,32
432,96	321,53
433,16	211,96
433,37	287,74
433,58	259,07
433,78	281,60
433,99	277,50
434,19	232,44
434,40	251,90
434,60	196,61
434,81	207,87
435,02	178,17
435,22	215,04
435,43	212,99
435,63	286,72
435,84	324,60
436,05	322,56
436,25	330,75
436,46	366,59
436,66	312,32
436,87	256,00
437,07	358,39
437,28	305,15
437,48	195,58
437,69	253,95
437,90	229,37
438,10	194,56
438,31	219,13
438,51	146,43
438,72	257,02
438,92	218,11
439,13	227,32
439,34	234,49
439,54	74,75
439,75	174,08
439,95	133,12
440,16	195,58
440,36	256,00
440,57	204,80
440,77	124,93
440,98	200,70
441,18	243,71
441,39	198,65
441,60	228,35
441,80	294,91
442,01	199,68
442,21	177,15
442,42	205,82
442,62	221,18
442,83	200,70
443,03	150,53
443,24	182,27
443,44	176,13
443,65	221,18
443,85	248,83
444,06	129,02
444,26	205,82
444,47	146,43
444,67	174,08
444,88	188,41
445,09	175,10
445,29	190,46
445,50	172,03
445,70	189,44
445,91	140,29
446,11	164,86
446,32	224,25
446,52	239,61
446,73	216,06
446,93	130,05
447,14	177,15
447,34	108,54
447,55	169,98
447,75	160,77
447,96	202,75
448,16	186,37
448,37	169,98
448,57	156,67
448,78	211,96
448,98	177,15
449,19	123,90
449,39	141,31
449,60	121,85
449,80	130,05
450,01	181,25
450,21	93,18
450,42	138,24
450,62	227,32
450,83	215,04
451,03	87,04
451,23	203,77
451,44	201,72
451,64	263,16
451,85	301,05
452,05	329,72
452,26	318,46
452,46	336,89
452,67	375,80
452,87	400,38
453,08	324,60
453,28	383,99
453,49	334,84
453,69	274,43
453,90	261,12
454,10	237,56
454,31	236,54
454,51	267,26
454,71	217,08
454,92	168,96
455,12	191,49
455,33	208,89
455,53	173,05
455,74	229,37
455,94	206,84
456,15	272,38
456,35	191,49
456,55	208,89
456,76	256,00
456,96	250,88
457,17	249,85
457,37	260,09
457,58	229,37
457,78	254,97
457,99	249,85
458,19	307,20
458,39	256,00
458,60	239,61
458,80	155,65
459,01	294,91
459,21	184,32
459,42	271,36
459,62	218,11
459,82	138,24
460,03	230,40
460,23	158,72
460,44	233,47
460,64	180,22
460,85	249,85
461,05	124,93
461,25	270,33
461,46	191,49
461,66	224,25
461,87	242,68
462,07	178,17
462,27	148,48
462,48	162,81
462,68	173,05
462,89	244,73
463,09	451,58
463,29	178,17
463,50	225,28
463,70	147,45
463,91	157,69
464,11	172,03
464,31	242,68
464,52	171,01
464,72	114,69
464,93	217,08
465,13	200,70
465,33	184,32
465,54	149,50
465,74	149,50
465,95	202,75
466,15	243,71
466,35	182,27
466,56	166,91
466,76	180,22
466,96	185,34
467,17	161,79
467,37	159,74
467,58	135,17
467,78	205,82
467,98	273,40
468,19	304,12
468,39	322,56
468,59	497,66
468,80	639,99
469,00	798,71
469,21	780,28
469,41	892,91
469,61	836,60
469,82	764,92
470,02	721,91
470,22	528,38
470,43	527,35
470,63	454,65
470,83	443,39
471,04	390,14
471,24	420,86
471,45	363,51
471,65	323,58
471,85	390,14
472,06	309,24
472,26	350,20
472,46	319,48
472,67	333,82
472,87	253,95
473,07	251,90
473,28	283,64
473,48	343,03
473,68	247,80
473,89	226,30
474,09	275,45
474,29	241,66
474,50	184,32
474,70	200,70
474,90	177,15
475,11	214,01
475,31	253,95
475,51	158,72
475,72	299,00
475,92	215,04
476,12	211,96
476,33	150,53
476,53	283,64
476,73	230,40
476,93	260,09
477,14	347,13
477,34	303,10
477,54	388,09
477,75	401,40
477,95	362,49
478,15	326,65
478,36	305,15
478,56	311,29
478,76	295,93
478,97	299,00
479,17	366,59
479,37	276,48
479,57	235,52
479,78	248,83
479,98	324,60
480,18	250,88
480,39	189,44
480,59	238,59
480,79	338,94
480,99	257,02
481,20	283,64
481,40	229,37
481,60	211,96
481,81	203,77
482,01	236,54
482,21	259,07
482,41	239,61
482,62	184,32
482,82	302,08
483,02	254,97
483,23	312,32
483,43	271,36
483,63	263,16
483,83	220,16
484,04	216,06
484,24	280,57
484,44	239,61
484,64	184,32
484,85	247,80
485,05	188,41
485,25	278,52
485,45	165,89
485,66	332,79
485,86	207,87
486,06	198,65
486,26	281,60
486,47	323,58
486,67	300,03
486,87	236,54
487,07	306,17
487,28	222,20
487,48	244,73
487,68	314,36
487,88	299,00
488,09	246,78
488,29	272,38
488,49	308,22
488,69	383,99
488,90	319,48
489,10	265,21
489,30	210,94
489,50	198,65
489,71	327,68
489,91	257,02
490,11	303,10
490,31	404,47
490,52	281,60
490,72	299,00
490,92	319,48
491,12	380,92
491,32	355,32
491,53	344,06
491,73	290,81
491,93	259,07
492,13	322,56
492,33	309,24
492,54	295,93
492,74	310,27
492,94	257,02
493,14	232,44
493,35	287,74
493,55	438,27
493,75	225,28
493,95	256,00
494,15	233,47
494,36	196,60
494,56	226,30
494,76	279,55
494,96	287,74
495,16	413,69
495,37	365,56
495,57	378,87
495,77	324,60
495,97	362,49
496,17	399,35
496,37	300,03
496,58	356,35
496,78	311,29
496,98	347,13
497,18	306,17
497,38	302,08
497,59	391,16
497,79	346,11
497,99	306,17
498,19	342,01
498,39	319,48
498,59	300,03
498,80	382,97
499,00	339,96
499,20	688,12
499,40	1049,58
499,60	1721,32
499,80	2683,86
500,01	3729,35
500,21	4746,17
500,41	5472,17
500,61	5951,40
500,81	5726,12
501,01	4908,98
501,22	4213,70
501,42	3402,70
501,62	2751,45
501,82	2383,84
502,02	2065,38
502,22	1899,49
502,42	1824,74
502,63	1718,25
502,83	1598,44
503,03	1466,35
503,23	1444,84
503,43	1331,18
503,63	1192,94
503,83	1072,11
504,04	911,35
504,24	817,14
504,44	713,72
504,64	607,22
504,84	477,18
505,04	488,44
505,24	339,96
505,44	395,26
505,65	406,52
505,85	405,50
506,05	453,63
506,25	340,99
506,45	312,32
506,65	327,68
506,85	297,98
507,05	284,67
507,26	401,40
507,46	316,41
507,66	367,61
507,86	359,42
508,06	411,64
508,26	360,44
508,46	387,07
508,66	268,28
508,86	315,39
509,06	316,41
509,27	391,16
509,47	394,23
509,67	391,16
509,87	363,51
510,07	320,51
510,27	282,62
510,47	359,42
510,67	323,58
510,87	449,53
511,07	347,13
511,28	332,79
511,48	407,55
511,68	328,70
511,88	318,46
512,08	362,49
512,28	337,91
512,48	355,32
512,68	352,25
512,88	332,79
513,08	318,46
513,28	337,91
513,48	360,44
513,68	325,63
513,89	359,42
514,09	440,31
514,29	291,84
514,49	257,02
514,69	319,48
514,89	446,46
515,09	393,21
515,29	302,08
515,49	363,51
515,69	331,77
515,89	365,56
516,09	462,84
516,29	457,72
516,49	629,75
516,69	890,87
516,89	1194,99
517,09	1398,76
517,29	1582,06
517,50	1752,04
517,70	1739,75
517,90	1541,10
518,10	1347,56
518,30	1252,33
518,50	1042,42
518,70	974,83
518,90	876,53
519,10	837,62
519,30	805,88
519,50	743,41
519,70	684,02
519,90	696,31
520,10	619,51
520,30	628,73
520,50	621,56
520,70	593,91
520,90	580,60
521,10	553,98
521,30	501,75
521,50	514,04
521,70	486,39
521,90	430,07
522,10	365,56
522,30	435,19
522,50	481,27
522,70	376,83
522,90	395,26
523,10	467,96
523,30	389,11
523,50	423,93
523,70	419,83
523,90	459,77
524,10	424,95
524,30	481,27
524,50	398,33
524,70	431,10
524,90	427,00
525,10	418,81
525,30	427,00
525,50	441,34
525,70	398,33
525,90	386,04
526,10	371,71
526,30	441,34
526,50	402,43
526,70	353,27
526,90	356,35
527,10	497,66
527,30	457,72
527,50	456,70
527,70	452,60
527,90	419,83
528,10	427,00
528,30	445,43
528,50	345,08
528,70	390,14
528,90	364,54
529,10	392,19
529,30	336,89
529,50	414,71
529,70	385,02
529,90	462,84
530,10	395,26
530,29	406,52
530,49	377,85
530,69	408,57
530,89	434,17
531,09	357,37
531,29	402,43
531,49	405,50
531,69	386,04
531,89	368,63
532,09	465,91
532,29	455,67
532,49	410,62
532,69	435,19
532,89	539,64
533,09	415,74
533,29	438,27
533,49	275,45
533,68	375,80
533,88	456,70
534,08	446,46
534,28	503,80
534,48	379,90
534,68	425,98
534,88	375,80
535,08	492,54
535,28	364,54
535,48	442,36
535,68	405,50
535,88	422,91
536,08	464,89
536,27	398,33
536,47	378,87
536,67	367,61
536,87	397,31
537,07	382,97
537,27	413,69
537,47	458,74
537,67	368,63
537,87	396,28
538,07	388,09
538,27	452,60
538,46	460,79
538,66	473,08
538,86	442,36
539,06	536,57
539,26	478,20
539,46	516,09
539,66	412,67
539,86	526,33
540,06	400,38
540,25	390,14
540,45	476,15
540,65	421,88
540,85	476,15
541,05	431,10
541,25	411,64
541,45	410,62
541,65	432,12
541,85	436,22
542,04	485,37
542,24	488,44
542,44	473,08
542,64	507,90
542,84	484,34
543,04	371,71
543,24	492,54
543,43	519,16
543,63	433,15
543,83	348,15
544,03	576,50
544,23	495,61
544,43	527,35
544,63	553,98
544,82	568,31
545,02	427,00
545,22	517,11
545,42	496,63
545,62	492,54
545,82	498,68
546,02	592,89
546,21	561,14
546,41	549,88
546,61	424,95
546,81	495,61
547,01	593,91
547,21	470,01
547,40	639,99
547,60	483,32
547,80	527,35
548,00	543,74
548,20	527,35
548,40	558,07
548,59	560,12
548,79	546,81
548,99	527,35
549,19	446,46
549,39	488,44
549,59	545,78
549,78	499,70
549,98	509,94
550,18	587,77
550,38	542,71
550,58	496,63
550,77	539,64
550,97	567,29
551,17	616,44
551,37	610,29
551,57	688,12
551,76	657,40
551,96	666,61
552,16	573,43
552,36	745,46
552,56	669,69
552,75	648,18
552,95	665,59
553,15	722,93
553,35	626,68
553,55	702,45
553,74	681,97
553,94	625,65
554,14	744,44
554,34	737,27
554,54	629,75
554,73	786,42
554,93	758,77
555,13	672,76
555,33	831,48
555,53	751,60
555,72	835,57
555,92	840,69
556,12	845,81
556,32	848,88
556,51	781,30
556,71	828,40
556,91	750,58
557,11	812,02
557,30	929,78
557,50	965,62
557,70	1016,82
557,90	1002,48
558,10	1079,28
558,29	1096,69
558,49	1230,83
558,69	1149,93
558,89	1266,67
559,08	1166,32
559,28	1274,86
559,48	1242,09
559,68	1316,84
559,87	1358,83
560,07	1372,14
560,27	1396,71
560,47	1299,44
560,66	1381,35
560,86	1375,21
561,06	1371,12
561,25	1426,41
561,45	1475,56
561,65	1512,42
561,85	1559,53
562,04	1625,06
562,24	1610,73
562,44	1692,65
562,64	1563,62
562,83	1741,80
563,03	1774,56
563,23	1757,16
563,42	1774,56
563,62	1751,01
563,82	1854,44
564,02	1905,63
564,21	1919,97
564,41	1945,57
564,61	1985,51
564,80	1975,27
565,00	1961,95
565,20	2104,29
565,40	2209,76
565,59	2274,27
565,79	2251,74
565,99	2282,46
566,18	2368,48
566,38	2492,38
566,58	2442,20
566,78	2553,82
566,97	2556,89
567,17	2799,57
567,37	2709,46
567,56	2844,63
567,76	2970,58
567,96	3051,47
568,15	3322,83
568,35	3497,93
568,55	3758,02
568,74	3994,56
568,94	4703,16
569,14	5382,06
569,33	7807,88
569,53	11759,44
569,73	16290,57
569,92	24431,24
570,12	33914,36
570,32	41449,86
570,52	47290,67
570,71	50532,60
570,91	52431,07
571,11	49847,56
571,30	43986,27
571,50	38307,26
571,70	32026,14
571,89	26099,31
572,09	22583,98
572,28	20258,51
572,48	18610,92
572,68	17426,17
572,87	16460,55
573,07	15736,59
573,27	14606,11
573,46	13895,47
573,66	12992,31
573,86	12221,25
574,05	11259,73
574,25	10393,44
574,45	9652,08
574,64	8786,81
574,84	8165,25
575,04	7442,32
575,23	7230,35
575,43	6781,85
575,62	6722,46
575,82	6556,57
576,02	6374,30
576,21	6502,30
576,41	6419,36
576,61	6491,04
576,80	6419,36
577,00	6670,23
577,19	6674,33
577,39	6649,75
577,59	6748,06
577,78	6801,30
577,98	7180,18
578,18	7007,13
578,37	7206,80
578,57	7203,73
578,76	7270,29
578,96	7419,79
579,16	7508,88
579,35	7629,71
579,55	7575,44
579,74	7719,82
579,94	7796,62
580,14	8011,65
580,33	7973,77
580,53	8285,06
580,72	8173,44
580,92	8509,31
581,12	8574,85
581,31	8749,95
581,51	8789,88
581,70	9052,02
581,90	9138,04
582,10	9194,36
582,29	9487,22
582,49	9544,56
582,68	9753,45
582,88	10036,07
583,07	10367,84
583,27	10568,54
583,47	11018,07
583,66	11260,76
583,86	11553,62
584,05	11861,84
584,25	12499,78
584,44	12689,21
584,64	13107,00
584,84	13648,69
585,03	14093,10
585,23	14567,20
585,42	15227,67
585,62	15556,37
585,81	16531,20
586,01	17213,18
586,20	18156,27
586,40	19205,85
586,60	20628,17
586,79	22057,65
586,99	23612,06
587,18	25866,87
587,38	28618,32
587,57	30365,23
587,77	33162,76
587,96	35458,53
588,16	37890,49
588,35	40329,62
588,55	43025,78
588,75	46155,07
588,94	50533,63
589,14	56740,00
589,33	63398,97
589,53	62536,77
589,72	62900,29
589,92	63359,03
590,11	63000,64
590,31	62615,62
590,50	62117,96
590,70	62612,55
590,89	62823,49
591,09	62566,47
591,28	62610,50
591,48	62976,06
591,67	62767,17
591,87	62880,83
592,06	62413,90
592,26	62793,79
592,45	62918,72
592,65	62862,40
592,84	62860,35
593,04	63226,94
593,23	62899,26
593,43	62765,12
593,62	62783,55
593,82	63182,91
594,01	63115,32
594,21	62688,32
594,40	63070,27
594,60	63265,85
594,79	63216,70
594,99	62760,00
595,18	62586,95
595,38	63089,73
595,57	62890,05
595,77	62849,09
595,96	62049,36
596,16	62720,07
596,35	62796,87
596,55	62658,63
596,74	62684,23
596,94	63135,80
597,13	63080,51
597,33	62797,89
597,52	62681,16
597,72	62963,78
597,91	62974,02
598,11	62935,10
598,30	63029,31
598,50	62685,25
598,69	63065,15
598,88	62652,48
599,08	62666,82
599,27	63046,72
599,47	63385,66
599,66	62621,76
599,86	62513,22
600,05	63103,04
600,25	62923,84
600,44	62619,72
600,64	62010,45
600,83	63127,61
601,02	63107,13
601,22	62338,12
601,41	62627,91
601,61	62944,32
601,80	62783,55
602,00	62869,57
602,19	62846,02
602,38	63350,84
602,58	62978,11
602,77	62750,79
602,97	63062,08
603,16	63244,35
603,36	62596,16
603,55	62477,38
603,74	62840,90
603,94	63100,99
604,13	62817,35
604,33	62669,89
604,52	62831,68
604,72	63037,50
604,91	63220,80
605,10	62813,25
605,30	62696,52
605,49	63119,42
605,69	62081,10
605,88	62526,53
606,07	62897,22
606,27	62570,57
606,46	62920,77
606,66	62911,55
606,85	63024,19
607,04	63316,03
607,24	62912,58
607,43	62396,49
607,63	62602,31
607,82	62800,96
608,01	63251,51
608,21	62737,47
608,40	62067,79
608,60	62625,86
608,79	62907,46
608,98	62526,53
609,18	62398,54
609,37	62677,06
609,57	62780,48
609,76	62551,11
609,95	62784,58
610,15	62892,10
610,34	62993,47
610,53	62874,69
610,73	62301,26
610,92	62982,21
611,11	63231,04
611,31	61814,86
611,50	62559,30
611,70	61992,01
611,89	62901,31
612,08	62562,37
612,28	62705,73
612,47	62866,50
612,66	63284,28
612,86	62526,53
613,05	62664,77
613,24	62818,37
613,44	63200,32
613,63	62677,06
613,82	62464,07
614,02	62859,33
614,21	62714,95
614,41	62715,97
614,60	62746,69
614,79	62833,73
614,99	62449,74
615,18	62794,82
615,37	62409,80
615,57	62844,99
615,76	63111,23
615,95	62727,23
616,15	62612,55
616,34	62995,52
616,53	63031,36
616,73	62483,53
616,92	62626,88
617,11	63019,07
617,30	63134,78
617,50	62723,14
617,69	62723,14
617,88	62220,36
618,08	62523,46
618,27	62372,94
618,46	62842,95
618,66	63094,85
618,85	63368,25
619,04	62667,84
619,24	62651,46
619,43	62676,04
619,62	63170,62
619,82	62785,60
620,01	62626,88
620,20	63084,61
620,39	62862,40
620,59	62701,64
620,78	62376,01
620,97	62913,60
621,17	62975,04
621,36	62800,96
621,55	62533,70
621,74	62978,11
621,94	63256,63
622,13	62563,40
622,32	62713,92
622,52	62796,87
622,71	62884,93
622,90	62905,41
623,09	62825,54
623,29	63268,92
623,48	62842,95
623,67	62732,35
623,86	62307,40
624,06	63206,46
624,25	62954,56
624,44	62763,07
624,64	63050,81
624,83	63008,83
625,02	63074,37
625,21	62358,60
625,41	62544,97
625,60	62848,06
625,79	63365,18
625,98	63129,66
626,18	62636,10
626,37	62521,41
626,56	62946,37
626,75	62525,51
626,95	62524,49
627,14	63003,71
627,33	63034,43
627,52	62812,23
627,72	62669,89
627,91	63061,05
628,10	62852,16
628,29	62439,50
628,49	62158,92
628,68	62722,11
628,87	62925,89
629,06	62452,81
629,25	62406,73
629,45	63100,99
629,64	62681,16
629,83	62622,79
630,02	62490,69
630,22	62774,34
630,41	62959,68
630,60	62796,87
630,79	62553,16
630,98	63073,34
631,18	63262,78
631,37	62933,06
631,56	62976,06
631,75	62720,07
631,94	52190,44
632,14	62767,17
632,33	1760,23
632,52	1611,75
632,71	1592,30
632,90	1580,01
633,10	1606,63
633,29	1555,43
633,48	1415,15
633,67	1478,63
633,86	1517,54
634,06	1499,11
634,25	1550,31
634,44	1528,81
634,63	1432,55
634,82	1436,65
635,02	1467,37
635,21	1404,91
635,40	1501,16
635,59	1502,19
635,78	1382,38
635,97	1499,11
636,17	1289,20
636,36	1351,66
636,55	1382,38
636,74	1331,18
636,93	1401,83
637,12	1330,16
637,32	1404,91
637,51	1447,91
637,70	1371,12
637,89	1331,18
638,08	1393,64
638,27	1282,03
638,47	1342,44
638,66	1321,96
638,85	1321,96
639,04	1320,94
639,23	1286,12
639,42	1170,41
639,62	1292,27
639,81	1218,54
640,00	1241,07
640,19	1220,59
640,38	1312,75
640,57	1215,47
640,76	1258,48
640,95	1243,12
641,15	1201,13
641,34	1255,40
641,53	1184,75
641,72	1172,46
641,91	1156,08
642,10	1293,29
642,29	1138,67
642,49	1301,48
642,68	1240,05
642,87	1207,28
643,06	1219,57
643,25	1293,29
643,44	1263,60
643,63	1199,09
643,82	1084,40
644,01	1235,95
644,21	1241,07
644,40	1166,32
644,59	1166,32
644,78	1119,21
644,97	1098,74
645,16	1132,53
645,35	1021,94
645,54	1090,54
645,73	1110,00
645,92	1138,67
646,12	1133,55
646,31	1052,66
646,50	1065,97
646,69	1059,82
646,88	1063,92
647,07	971,76
647,26	1010,67
647,45	1004,53
647,64	1011,70
647,83	976,88
648,02	1108,98
648,22	1061,87
648,41	1010,67
648,60	1071,09
648,79	1013,74
648,98	992,24
649,17	966,64
649,36	940,02
649,55	1047,54
649,74	928,75
649,93	974,83
650,12	894,96
650,31	1030,13
650,50	915,44
650,69	978,93
650,88	897,01
651,08	1033,20
651,27	861,17
651,46	982,00
651,65	900,08
651,84	948,21
652,03	948,21
652,22	856,05
652,41	909,30
652,60	881,65
652,79	944,11
652,98	952,31
653,17	862,19
653,36	807,92
653,55	909,30
653,74	910,32
653,93	911,35
654,12	888,82
654,31	905,20
654,50	842,74
654,69	795,64
654,88	786,42
655,07	783,35
655,26	751,60
655,45	806,90
655,64	806,90
655,83	848,88
656,02	833,52
656,21	822,26
656,40	813,04
656,59	858,10
656,78	852,98
656,97	750,58
657,17	827,38
657,36	834,55
657,55	710,65
657,74	778,23
657,93	822,26
658,12	709,62
658,31	724,98
658,50	815,09
658,69	771,06
658,87	756,72
659,06	641,01
659,25	703,48
659,44	770,04
659,63	811,00
659,82	671,73
660,01	774,13
660,20	750,58
660,39	672,76
660,58	713,72
660,77	722,93
660,96	687,09
661,15	651,25
661,34	681,97
661,53	686,07
661,72	621,56
661,91	637,94
662,10	750,58
662,29	664,57
662,48	718,84
662,67	688,12
662,86	693,24
663,05	645,11
663,24	633,85
663,43	644,09
663,62	586,74
663,81	655,35
664,00	660,47
664,19	642,04
664,38	601,08
664,57	666,61
664,76	681,97
664,94	650,23
665,13	678,90
665,32	647,16
665,51	630,77
665,70	645,11
665,89	590,84
666,08	609,27
666,27	602,10
666,46	590,84
666,65	686,07
666,84	645,11
667,03	621,56
667,22	537,59
667,41	592,89
667,60	549,88
667,78	602,10
667,97	666,61
668,16	626,68
668,35	369,66
668,54	617,46
668,73	606,20
668,92	625,65
669,11	634,87
669,30	657,40
669,49	654,33
669,68	611,32
669,86	635,89
670,05	593,91
670,24	623,61
670,43	532,47
670,62	574,46
670,81	579,58
671,00	524,28
671,19	507,90
671,38	478,20
671,57	497,66
671,75	549,88
671,94	559,10
672,13	504,82
672,32	475,13
672,51	563,19
672,70	471,03
672,89	583,67
673,08	497,66
673,26	471,03
673,45	490,49
673,64	410,62
673,83	421,88
674,02	440,31
674,21	440,31
674,40	557,05
674,59	467,96
674,77	454,65
674,96	534,52
675,15	424,95
675,34	351,23
675,53	399,35
675,72	359,42
675,91	440,31
676,09	443,39
676,28	519,16
676,47	568,31
676,66	601,08
676,85	615,41
677,04	510,97
677,22	534,52
677,41	518,14
677,60	468,98
677,79	526,33
677,98	398,33
678,17	472,06
678,36	432,12
678,54	461,82
678,73	382,97
678,92	421,88
679,11	520,18
679,30	306,17
679,48	424,95
679,67	338,94
679,86	358,39
680,05	402,43
680,24	410,62
680,43	380,92
680,61	355,32
680,80	389,11
680,99	383,99
681,18	273,40
681,37	383,99
681,55	410,62
681,74	291,84
681,93	293,88
682,12	299,00
682,31	305,15
682,49	363,51
682,68	269,31
682,87	349,18
683,06	385,02
683,25	320,51
683,43	362,49
683,62	286,72
683,81	307,20
684,00	205,82
684,19	302,08
684,37	336,89
684,56	252,92
684,75	311,29
684,94	318,46
685,12	304,12
685,31	329,72
685,50	223,23
685,69	242,68
685,88	293,88
686,06	307,20
686,25	241,66
686,44	257,02
686,63	200,70
686,81	205,82
687,00	287,74
687,19	241,66
687,38	244,73
687,56	262,14
687,75	342,01
687,94	317,44
688,13	403,45
688,31	386,04
688,50	388,09
688,69	453,63
688,88	386,04
689,06	521,21
689,25	286,72
689,44	464,89
689,63	356,35
689,81	343,03
690,00	385,02
690,19	421,88
690,38	294,91
690,56	297,98
690,75	324,60
690,94	301,05
691,13	226,30
691,31	308,22
691,50	399,35
691,69	297,98
691,87	264,19
692,06	259,07
692,25	340,99
692,44	299,00
692,62	250,88
692,81	297,98
693,00	285,69
693,18	312,32
693,37	282,62
693,56	238,59
693,75	240,64
693,93	206,84
694,12	299,00
694,31	271,36
694,49	249,85
694,68	242,68
694,87	296,96
695,05	333,82
695,24	238,59
695,43	256,00
695,62	288,76
695,80	291,84
695,99	327,68
696,18	302,08
696,36	304,12
696,55	420,86
696,74	809,97
696,92	1649,64
697,11	2913,24
697,30	4464,57
697,48	5641,13
697,67	6793,11
697,86	8024,97
698,04	8963,96
698,23	9419,63
698,42	8798,07
698,60	8118,15
698,79	7933,83
698,98	7188,37
699,16	6200,23
699,35	5281,71
699,54	4248,51
699,72	3507,15
699,91	3090,38
700,10	2678,74
700,28	2324,44
700,47	2020,32
700,66	1970,15
700,84	1610,73
701,03	1478,63
701,21	1357,80
701,40	1018,86
701,59	780,28
701,77	643,06
701,96	514,04
702,15	408,57
702,33	443,39
702,52	317,44
702,71	263,16
702,89	187,39
703,08	278,52
703,26	339,96
703,45	314,36
703,64	277,50
703,82	243,71
704,01	208,89
704,20	357,37
704,38	302,08
704,57	347,13
704,75	352,25
704,94	288,76
705,13	318,46
705,31	299,00
705,50	351,23
705,68	273,40
705,87	263,16
706,06	281,60
706,24	281,60
706,43	179,20
706,61	397,31
706,80	447,48
706,99	1033,20
707,17	1715,17
707,36	2653,14
707,54	3646,41
707,73	4391,87
707,92	5226,42
708,10	5750,70
708,29	6121,38
708,47	6167,46
708,66	5510,06
708,84	5463,98
709,03	5067,70
709,22	4476,86
709,40	3929,03
709,59	3297,23
709,77	2888,66
709,96	2351,07
710,14	2097,12
710,33	1825,76
710,52	1616,87
710,70	1409,00
710,89	1247,21
711,07	1087,47
711,26	788,47
711,44	779,25
711,63	621,56
711,81	465,91
712,00	479,22
712,19	441,34
712,37	282,62
712,56	238,59
712,74	234,49
712,93	156,67
713,11	262,14
713,30	284,67
713,48	174,08
713,67	249,85
713,85	153,60
714,04	192,51
714,22	263,16
714,41	237,56
714,59	279,55
714,78	183,29
714,97	248,83
715,15	399,35
715,34	535,54
715,52	660,47
715,71	628,73
715,89	710,65
716,08	777,20
716,26	808,95
716,45	802,80
716,63	802,80
716,82	727,03
717,00	655,35
717,19	694,26
717,37	593,91
717,56	568,31
717,74	455,67
717,93	419,83
718,11	351,23
718,30	262,14
718,48	301,05
718,67	358,39
718,85	286,72
719,04	286,72
719,22	219,13
719,41	186,37
719,59	253,95
719,78	251,90
719,96	227,32
720,15	218,11
720,33	174,08
720,52	219,13
720,70	190,46
720,88	199,68
721,07	186,37
721,25	250,88
721,44	237,56
721,62	153,60
721,81	265,21
721,99	261,12
722,18	246,78
722,36	300,03
722,55	195,58
722,73	249,85
722,92	271,36
723,10	228,35
723,28	233,47
723,47	221,18
723,65	153,60
723,84	268,28
724,02	262,14
724,21	274,43
724,39	268,28
724,58	185,34
724,76	189,44
724,94	128,00
725,13	157,69
725,31	261,12
725,50	216,06
725,68	165,89
725,87	162,81
726,05	98,30
726,23	204,80
726,42	195,58
726,60	153,60
726,79	136,19
726,97	270,33
727,16	247,80
727,34	342,01
727,52	562,17
727,71	818,16
727,89	1031,15
728,08	1331,18
728,26	1606,63
728,44	1825,76
728,63	2101,22
728,81	2107,36
729,00	1983,46
729,18	1904,61
729,36	1801,19
729,55	1728,49
729,73	1631,21
729,92	1427,43
730,10	1334,25
730,28	1049,58
730,47	854,00
730,65	738,29
730,84	669,69
731,02	647,16
731,20	476,15
731,39	429,05
731,57	346,11
731,75	240,64
731,94	297,98
732,12	349,18
732,31	281,60
732,49	235,52
732,67	141,31
732,86	169,98
733,04	275,45
733,22	189,44
733,41	196,61
733,59	192,51
733,78	190,46
733,96	154,62
734,14	186,37
734,33	205,82
734,51	266,24
734,69	164,86
734,88	147,45
735,06	217,08
735,24	72,70
735,43	221,18
735,61	236,54
735,79	203,77
735,98	262,14
736,16	197,63
736,34	256,00
736,53	247,80
736,71	240,64
736,89	355,32
737,08	296,96
737,26	325,63
737,44	295,93
737,63	305,15
737,81	345,08
737,99	409,59
738,18	485,37
738,36	930,80
738,54	1877,99
738,73	3112,91
738,91	4756,41
739,09	6307,74
739,28	7507,85
739,46	8919,93
739,64	9894,76
739,82	10376,03
740,01	10100,58
740,19	9390,96
740,37	9151,35
740,56	8441,73
740,74	8066,95
740,92	7208,85
741,11	6191,01
741,29	5111,73
741,47	3935,17
741,65	3077,07
741,84	2343,90
742,02	1809,38
742,20	1354,73
742,39	966,64
742,57	760,82
742,75	555,00
742,93	397,31
743,12	389,11
743,30	410,62
743,48	322,56
743,67	256,00
743,85	261,12
744,03	290,81
744,21	321,53
744,40	289,79
744,58	329,72
744,76	353,27
744,94	297,98
745,13	246,78
745,31	234,49
745,49	285,69
745,67	275,45
745,86	281,60
746,04	244,73
746,22	232,44
746,40	226,30
746,59	166,91
746,77	137,21
746,95	205,82
747,13	278,52
747,32	242,68
747,50	156,67
747,68	197,63
747,86	262,14
748,05	244,73
748,23	303,10
748,41	277,50
748,59	299,00
748,77	205,82
748,96	200,70
749,14	308,22
749,32	257,02
749,50	327,67
749,69	352,25
749,87	335,87
750,05	394,23
750,23	480,25
750,41	1081,33
750,60	1909,73
750,78	3048,40
750,96	4335,55
751,14	5469,10
751,32	6583,20
751,51	8172,42
751,69	9483,12
751,87	10956,63
752,05	11964,23
752,23	12750,65
752,42	13264,69
752,60	13603,63
752,78	13709,10
752,96	13107,00
753,14	11842,38
753,33	10585,95
753,51	9491,31
753,69	8165,25
753,87	7029,65
754,05	6007,72
754,23	4935,60
754,42	3865,54
754,60	2824,15
754,78	2007,01
754,96	1402,86
755,14	1064,94
755,32	764,92
755,51	679,93
755,69	485,37
755,87	481,27
756,05	436,22
756,23	314,36
756,41	336,89
756,60	309,24
756,78	296,96
756,96	230,40
757,14	291,84
757,32	247,80
757,50	324,60
757,68	330,75
757,87	253,95
758,05	306,17
758,23	224,25
758,41	315,39
758,59	208,89
758,77	296,96
758,95	266,24
759,14	311,29
759,32	268,28
759,50	292,86
759,68	342,01
759,86	294,91
760,04	356,35
760,22	230,40
760,40	315,39
760,59	315,39
760,77	232,44
760,95	263,16
761,13	356,35
761,31	253,95
761,49	257,02
761,67	256,00
761,85	334,84
762,03	377,85
762,22	367,61
762,40	387,07
762,58	447,48
762,76	391,16
762,94	522,23
763,12	814,07
763,30	2012,13
763,48	4808,63
763,66	9209,72
763,84	15595,28
764,02	22386,35
764,21	27906,65
764,39	33480,19
764,57	37858,75
764,75	41356,68
764,93	41702,79
765,11	39483,81
765,29	36464,08
765,47	34160,12
765,65	31172,13
765,83	27658,84
766,01	24169,10
766,19	20744,90
766,37	15908,62
766,56	12499,78
766,74	9540,46
766,92	7588,75
767,10	6286,24
767,28	5654,44
767,46	5287,86
767,64	5167,03
767,82	5035,96
768,00	4742,07
768,18	4114,37
768,36	3903,43
768,54	3516,36
768,72	3174,35
768,90	2824,15
769,08	2525,15
769,26	2095,07
769,44	1744,87
769,62	1345,52
769,80	1241,07
769,98	1140,72
770,16	1264,62
770,34	1649,64
770,52	1885,16
770,71	2217,95
770,89	2434,01
771,07	2451,42
771,25	2463,71
771,43	2472,92
771,61	2160,61
771,79	2078,69
771,97	2071,52
772,15	2245,60
772,33	2959,31
772,51	4459,45
772,69	6226,85
772,87	8378,24
773,05	10354,53
773,23	12147,53
773,41	13616,94
773,59	14583,59
773,77	14844,70
773,95	14059,31
774,13	12639,04
774,31	11611,98
774,49	10225,51
774,67	9191,28
774,85	8012,68
775,03	6896,53
775,21	5536,68
775,39	4332,48
775,57	3216,33
775,75	2365,40
775,93	1660,90
776,10	968,69
776,28	863,22
776,46	717,81
776,64	508,92
776,82	504,82
777,00	420,86
777,18	330,75
777,36	309,24
777,54	315,39
777,72	300,03
777,90	226,30
778,08	238,59
778,26	240,64
778,44	314,36
778,62	216,06
778,80	253,95
778,98	294,91
779,16	269,31
779,34	220,16
779,52	245,76
779,70	153,60
779,88	198,65
780,05	184,32
780,23	241,66
780,41	209,92
780,59	234,49
780,77	78,85
780,95	186,37
781,13	220,16
781,31	153,60
781,49	240,64
781,67	138,24
781,85	219,13
782,03	224,25
782,21	200,70
782,39	179,20
782,56	269,31
782,74	301,05
782,92	212,99
783,10	113,66
783,28	200,70
783,46	240,64
783,64	279,55
783,82	185,34
784,00	242,68
784,18	187,39
784,35	187,39
784,53	228,35
784,71	113,66
784,89	272,38
785,07	151,55
785,25	121,85
785,43	182,27
785,61	276,48
785,79	184,32
785,96	258,04
786,14	196,61
786,32	150,53
786,50	233,47
786,68	120,83
786,86	139,26
787,04	264,19
787,22	230,40
787,39	220,16
787,57	223,23
787,75	220,16
787,93	164,86
788,11	146,43
788,29	184,32
788,47	216,06
788,65	151,55
788,82	337,91
789,00	175,10
789,18	215,04
789,36	149,50
789,54	212,99
789,72	211,96
789,89	216,06
790,07	258,04
790,25	240,64
790,43	174,08
790,61	269,31
790,79	155,65
790,96	182,27
791,14	187,39
791,32	165,89
791,50	184,32
791,68	250,88
791,86	212,99
792,03	275,45
792,21	279,55
792,39	240,64
792,57	224,25
792,75	264,19
792,93	220,16
793,10	224,25
793,28	187,39
793,46	322,56
793,64	219,13
793,82	221,18
793,99	253,95
794,17	251,90
794,35	346,11
794,53	598,01
794,71	1430,51
794,88	2336,73
795,06	3747,78
795,24	5032,88
795,42	6213,54
795,60	7066,52
795,77	7581,58
795,95	7813,00
796,13	7571,34
796,31	6674,33
796,49	5782,44
796,66	5218,22
796,84	4763,58
797,02	4174,78
797,20	3972,04
797,37	3810,25
797,55	3476,43
797,73	2865,11
797,91	2425,82
798,08	1851,36
798,26	1405,93
798,44	1034,22
798,62	798,71
798,80	647,16
798,97	442,36
799,15	423,93
799,33	366,59
799,51	331,77
799,68	403,45
799,86	302,08
800,04	402,43
800,22	482,30
800,39	748,53
800,57	1311,72
800,75	1757,16
800,93	2660,31
801,10	3303,37
801,28	4552,63
801,46	5815,21
801,63	7325,58
801,81	8751,99
801,99	9212,79
802,17	9671,53
802,34	9815,91
802,52	9912,17
802,70	9638,76
802,88	8947,58
803,05	7652,24
803,23	7031,70
803,41	6402,97
803,58	5518,25
803,76	4964,28
803,94	4621,24
804,12	4167,62
804,29	3614,66
804,47	3117,01
804,65	2468,83
804,82	1843,17
805,00	1469,42
805,18	1071,09
805,35	834,55
805,53	716,79
805,71	572,41
805,89	617,46
806,06	431,10
806,24	418,81
806,42	412,67
806,59	397,31
806,77	290,81
806,95	392,19
807,12	330,75
807,30	363,51
807,48	380,92
807,65	484,34
807,83	356,35
808,01	357,37
808,18	440,31
808,36	411,64
808,54	373,75
808,71	412,67
808,89	379,90
809,07	473,08
809,24	359,42
809,42	491,51
809,60	462,84
809,77	447,48
809,95	803,83
810,13	1644,52
810,30	2667,48
810,48	4085,70
810,66	5824,42
810,83	7302,03
811,01	8796,03
811,18	10826,59
811,36	14031,66
811,54	17950,45
811,71	22297,26
811,89	25820,79
812,07	28680,78
812,24	30905,90
812,42	32236,05
812,59	31916,57
812,77	30456,37
812,95	27899,48
813,12	24462,99
813,30	22187,69
813,48	20340,43
813,65	18234,09
813,83	16932,61
814,00	15809,29
814,18	14744,35
814,36	13435,70
814,53	11544,40
814,71	9562,99
814,88	7192,47
815,06	5547,95
815,24	3956,68
815,41	3002,32
815,59	2198,49
815,76	1621,99
815,94	1394,67
816,12	1208,30
816,29	1169,39
816,47	996,34
816,64	943,09
816,82	991,22
817,00	944,11
817,17	936,95
817,35	1100,78
817,52	1146,86
817,70	1569,77
817,87	3565,51
818,05	8445,82
818,23	16093,96
818,40	25346,69
818,58	34638,32
818,75	42677,62
818,93	50353,41
819,10	59201,66
819,28	62417,99
819,46	62496,84
819,63	63113,28
819,81	61785,17
819,98	62791,75
820,16	62849,09
820,33	62647,36
820,51	61903,95
820,68	62371,91
820,86	62971,97
821,03	62744,64
821,21	61832,27
821,39	62365,77
821,56	62244,94
821,74	62918,72
821,91	62544,97
822,09	62636,10
822,26	62807,11
822,44	62967,87
822,61	54541,50
822,79	29656,64
822,96	21708,47
823,14	15560,47
823,31	11077,46
823,49	8004,49
823,66	5821,35
823,84	4252,61
824,01	3198,93
824,19	2508,76
824,36	2030,56
824,54	1796,07
824,71	1594,34
824,89	1376,24
825,06	1289,20
825,24	1164,27
825,41	1045,49
825,59	983,03
825,76	856,05
825,94	1079,28
826,11	1394,67
826,29	1829,86
826,46	2511,83
826,64	3075,03
826,81	3678,15
826,99	3981,25
827,16	4323,26
827,34	4381,63
827,51	4332,48
827,69	4139,97
827,86	3810,25
828,04	3365,84
828,21	3182,54
828,39	2908,12
828,56	2848,72
828,74	2768,85
828,91	2745,30
829,09	2632,66
829,26	2441,18
829,43	2426,84
829,61	2077,66
829,78	1673,19
829,96	1404,91
830,13	1177,58
830,31	855,03
830,48	704,50
830,66	582,65
830,83	605,17
831,01	538,62
831,18	429,05
831,35	495,61
831,53	381,95
831,70	351,23
831,88	350,20
832,05	361,47
832,23	373,75
832,40	266,24
832,57	407,55
832,75	342,01
832,92	264,19
833,10	359,42
833,27	293,88
833,45	247,80
833,62	268,28
833,79	367,61
833,97	294,91
834,14	264,19
834,32	321,53
834,49	198,65
834,66	276,48
834,84	292,86
835,01	252,92
835,19	266,24
835,36	276,48
835,53	254,97
835,71	253,95
835,88	226,30
836,06	146,43
836,23	303,10
836,40	303,10
836,58	226,30
836,75	287,74
836,93	152,57
837,10	219,13
837,27	239,61
837,45	153,60
837,62	109,57
837,79	166,91
837,97	155,65
838,14	162,81
838,32	205,82
838,49	159,74
838,66	153,60
838,84	182,27
839,01	132,09
839,18	90,11
839,36	302,08
839,53	229,37
839,70	300,03
839,88	223,23
840,05	353,27
840,23	467,96
840,40	993,26
840,57	1753,06
840,75	2354,14
840,92	3315,66
841,09	3771,33
841,27	4260,80
841,44	4689,85
841,61	5014,45
841,79	5132,21
841,96	5568,43
842,13	5949,35
842,31	6760,34
842,48	7489,42
842,65	8333,18
842,83	8829,82
843,00	9322,35
843,17	9770,86
843,35	9811,82
843,52	9534,32
843,69	9101,17
843,86	8617,85
844,04	7877,51
844,21	7078,80
844,38	6636,44
844,56	6041,51
844,73	5554,09
844,90	5063,60
845,08	4913,08
845,25	4679,61
845,42	4491,20
845,60	4111,30
845,77	3371,98
845,94	2898,90
846,11	2253,79
846,29	1574,89
846,46	1187,82
846,63	813,04
846,81	689,14
846,98	435,19
847,15	412,67
847,32	273,40
847,50	313,34
847,67	254,97
847,84	195,58
848,01	201,72
848,19	137,21
848,36	187,39
848,53	163,84
848,71	162,81
848,88	179,20
849,05	191,49
849,22	157,69
849,40	187,39
849,57	193,53
849,74	156,67
849,91	140,29
850,09	74,75
850,26	120,83
850,43	146,43
850,60	190,46
850,78	162,81
850,95	186,37
851,12	179,20
851,29	169,98
851,47	248,83
851,64	408,57
851,81	429,05
851,98	703,48
852,15	1011,70
852,33	1174,51
852,50	1342,44
852,67	1554,41
852,84	1554,41
853,02	1588,20
853,19	1699,81
853,36	1488,87
853,53	1630,18
853,70	1568,74
853,88	1422,31
854,05	1346,54
854,22	1333,23
854,39	1292,27
854,56	1322,99
854,74	1238,00
854,91	1333,23
855,08	1319,92
855,25	1158,13
855,42	1079,28
855,60	888,82
855,77	720,88
855,94	541,69
856,11	468,98
856,28	334,84
856,46	282,62
856,63	180,22
856,80	230,40
856,97	174,08
857,14	50,18
857,31	93,18
857,49	62,46
857,66	152,57
857,83	154,62
858,00	148,48
858,17	138,24
858,34	138,24
858,52	134,14
858,69	110,59
858,86	63,49
859,03	56,32
859,20	130,05
859,37	104,45
859,55	112,64
859,72	106,49
859,89	128,00
860,06	8,19
860,23	197,63
860,40	19,46
860,57	159,74
860,75	69,63
860,92	91,13
861,09	64,51
861,26	76,80
861,43	103,42
861,60	55,30
861,77	105,47
861,95	81,92
862,12	79,87
862,29	62,46
862,46	51,20
862,63	55,30
862,80	57,34
862,97	65,54
863,14	91,13
863,31	147,45
863,49	55,30
863,66	186,37
863,83	112,64
864,00	23,55
864,17	76,80
864,34	77,82
864,51	50,18
864,68	50,18
864,85	75,77
865,02	176,13
865,20	88,06
865,37	5,12
865,54	39,94
865,71	139,26
865,88	55,30
866,05	23,55
866,22	126,97
866,39	169,98
866,56	179,20
866,73	211,96
866,90	236,54
867,07	169,98
867,25	236,54
867,42	210,94
867,59	276,48
867,76	337,91
867,93	332,79
868,10	315,39
868,27	323,58
868,44	295,93
868,61	368,63
868,78	310,27
868,95	340,99
869,12	304,12
869,29	188,41
869,46	349,18
869,63	371,71
869,80	236,54
869,97	283,64
870,14	338,94
870,32	167,93
870,49	245,76
870,66	284,67
870,83	74,75
871,00	185,34
871,17	167,93
871,34	53,25
871,51	24,58
871,68	77,82
871,85	43,01
872,02	84,99
872,19	201,72
872,36	102,40
872,53	78,85
872,70	106,49
872,87	88,06
873,04	166,91
873,21	159,74
873,38	76,80
873,55	53,25
873,72	122,88
873,89	196,61
874,06	61,44
874,23	91,13
874,40	53,25
874,57	72,70
874,74	50,18
874,91	99,33
875,08	71,68
875,25	55,30
875,42	94,21
875,59	143,36
875,76	8,19
875,93	145,41
876,10	46,08
876,27	9,22
876,44	12,29
876,61	102,40
876,78	68,61
876,95	19,46
877,12	89,09
877,29	51,20
877,46	75,77
877,62	98,30
877,79	77,82
877,96	80,89
878,13	7,17
878,30	9,22
878,47	93,18
878,64	79,87
878,81	53,25
878,98	37,89
879,15	112,64
879,32	98,30
879,49	183,29
879,66	39,94
879,83	111,61
880,00	3,07
880,17	19,46
880,34	46,08
880,51	63,49
880,67	115,71
880,84	51,20
881,01	36,86
881,18	86,01
881,35	118,78
881,52	83,97
881,69	63,49
881,86	30,72
882,03	9,22
882,20	32,77
882,37	67,58
882,54	77,82
882,70	51,20
882,87	60,42
883,04	71,68
883,21	65,53
883,38	18,43
883,55	16,38
883,72	-1,02
883,89	-4,10
884,06	156,67
884,23	43,01
884,39	61,44
884,56	137,21
884,73	70,65
884,90	120,83
885,07	108,54
885,24	66,56
885,41	-19,46
885,58	101,37
885,74	63,49
885,91	78,85
886,08	45,06
886,25	73,73
886,42	6,14
886,59	117,76
886,76	98,30
886,93	115,71
887,09	185,34
887,26	35,84
887,43	64,51
887,60	114,69
887,77	34,82
887,94	-16,38
888,10	92,16
888,27	87,04
888,44	107,52
888,61	76,80
888,78	51,20
888,95	-10,24
889,12	10,24
889,28	-11,26
889,45	15,36
889,62	-8,19
889,79	88,06
889,96	98,30
890,13	133,12
890,29	-16,38
890,46	121,85
890,63	18,43
890,80	61,44
890,97	78,85
891,13	21,50
891,30	58,37
891,47	22,53
891,64	47,10
891,81	77,82
891,98	13,31
892,14	47,10
892,31	73,73
892,48	150,53
892,65	144,38
892,82	97,28
892,98	87,04
893,15	72,70
893,32	-4,10
>>>>>End Processed Spectral Data<<<<<
