SpectraSuite Datei
++++++++++++++++++++++++++++++++++++
Datum: Mon Mar 09 11:53:10 CET 2020
Benutzer: Lichtquellen1
Dark-Spektrum vorhanden: Nein
Referenz-Spektrum vorhanden: Nein
Zahl der probierten Teilspektren: 1
Spektrometer: USB4F05832
Integrationszeit (usec): 200000 (USB4F05832)
Spektren Durchschnitt berechnet: 5 (USB4F05832)
Boxcar Glättung: 0 (USB4F05832)
Dunkelstromkorrektur: Nein (USB4F05832)
Puls/Lampe aktiviert: Nein (USB4F05832)
Correct for Detector Non-linearity: Nein (USB4F05832)
Streulichtkorrektur: Nein (USB4F05832)
Anzahl Pixel in verarbeitetem Spektrum: 3648
>>>>>Begin Processed Spectral Data<<<<<
177,54	1381,97
177,75	1381,97
177,97	1381,97
178,19	1342,65
178,41	1366,00
178,63	1722,75
178,85	1524,92
179,07	1595,37
179,29	1651,07
179,51	1511,81
179,73	1687,12
179,95	1643,70
180,17	1642,88
180,39	1805,49
180,61	1701,04
180,83	1789,11
181,05	1604,79
181,27	1669,91
181,49	1624,86
181,71	1630,59
181,92	1918,54
182,14	1694,49
182,36	1608,07
182,58	1761,25
182,80	1626,50
183,02	1841,53
183,24	1796,07
183,46	1735,04
183,68	1599,05
183,90	1746,10
184,12	1625,68
184,34	1768,63
184,56	1648,21
184,78	1594,55
185,00	1670,32
185,21	1786,65
185,43	1626,91
185,65	1712,51
185,87	1653,12
186,09	1867,75
186,31	1674,83
186,53	1703,91
186,75	1726,03
186,97	1817,37
187,19	1843,58
187,41	1599,46
187,63	1855,46
187,84	1568,33
188,06	1769,45
188,28	1660,49
188,50	1754,70
188,72	1840,30
188,94	1768,22
189,16	1590,04
189,38	1707,19
189,60	1749,37
189,82	1655,17
190,03	1721,52
190,25	1680,97
190,47	1711,69
190,69	1663,36
190,91	1602,33
191,13	1706,37
191,35	1819,83
191,57	1663,77
191,79	1691,62
192,01	1705,96
192,22	1803,44
192,44	1666,64
192,66	1734,22
192,88	1724,39
193,10	1668,68
193,32	1645,75
193,54	1860,37
193,76	1873,07
193,98	1672,37
194,19	1739,95
194,41	1670,32
194,63	1630,18
194,85	1692,85
195,07	1815,73
195,29	1572,02
195,51	1787,47
195,73	1672,37
195,94	1689,16
196,16	1679,74
196,38	1858,74
196,60	1638,38
196,82	1627,32
197,04	1689,57
197,26	1619,53
197,48	1655,17
197,69	1720,70
197,91	1610,52
198,13	1668,68
198,35	1704,73
198,57	1698,59
198,79	1795,25
199,01	1769,45
199,22	1692,44
199,44	1788,70
199,66	1678,92
199,88	1728,49
200,10	1787,06
200,32	1779,68
200,54	1735,04
200,75	1885,77
200,97	1629,77
201,19	1771,49
201,41	1768,63
201,63	1616,67
201,85	1629,77
202,06	1805,08
202,28	1677,29
202,50	1732,99
202,72	1569,56
202,94	1606,02
203,16	1665,00
203,38	1714,56
203,59	1685,89
203,81	1803,85
204,03	1559,32
204,25	1717,02
204,47	1822,28
204,69	1713,33
204,90	1639,19
205,12	1697,36
205,34	1709,64
205,56	1699,40
205,78	1638,78
206,00	1854,23
206,21	1786,65
206,43	1669,09
206,65	1726,85
206,87	1666,23
207,09	1745,28
207,30	1615,03
207,52	1748,97
207,74	1771,08
207,96	1651,89
208,18	1670,73
208,40	1654,35
208,61	1668,28
208,83	1721,11
209,05	1584,72
209,27	1576,94
209,49	1744,87
209,70	1773,13
209,92	1746,92
210,14	1621,17
210,36	1659,67
210,58	1687,94
210,79	1742,00
211,01	1603,56
211,23	1768,63
211,45	1781,73
211,67	1720,29
211,88	1579,80
212,10	1803,85
212,32	1616,67
212,54	1671,14
212,76	1651,89
212,97	1584,31
213,19	1571,20
213,41	1769,85
213,63	1647,80
213,85	1650,66
214,06	1592,09
214,28	1824,33
214,50	1644,11
214,72	1753,06
214,94	1741,59
215,15	1627,73
215,37	1655,17
215,59	1649,02
215,81	1771,08
216,02	1698,99
216,24	1730,12
216,46	1583,90
216,68	1700,22
216,90	1719,06
217,11	1806,31
217,33	1631,00
217,55	1795,66
217,77	1710,87
217,98	1798,12
218,20	1742,41
218,42	1780,09
218,64	1732,17
218,85	1819,01
219,07	1702,27
219,29	1689,57
219,51	1778,87
219,73	1694,90
219,94	1681,79
220,16	1800,57
220,38	1710,87
220,60	1665,41
220,81	1614,62
221,03	1587,18
221,25	1745,28
221,47	1554,41
221,68	1701,86
221,90	1752,65
222,12	1697,36
222,34	1709,64
222,55	1721,52
222,77	1841,94
222,99	1702,27
223,21	1744,87
223,42	1784,19
223,64	1800,16
223,86	1673,60
224,08	1706,37
224,29	1778,05
224,51	1726,03
224,73	1717,84
224,94	1710,05
225,16	1650,25
225,38	1687,94
225,60	1761,25
225,81	1670,73
226,03	1675,65
226,25	1598,64
226,47	1714,15
226,68	1745,28
226,90	1730,53
227,12	1712,10
227,33	1743,23
227,55	1653,53
227,77	1627,73
227,99	1841,53
228,20	1664,59
228,42	1719,06
228,64	1732,99
228,86	1687,94
229,07	1687,12
229,29	1624,45
229,51	1526,15
229,72	1831,70
229,94	1716,20
230,16	1726,03
230,38	1653,94
230,59	1705,55
230,81	1851,77
231,03	1726,03
231,24	1685,89
231,46	1630,59
231,68	1638,78
231,89	1685,07
232,11	1621,99
232,33	1809,99
232,55	1695,72
232,76	1757,57
232,98	1700,63
233,20	1636,74
233,41	1613,39
233,63	1651,89
233,85	1682,61
234,06	1659,67
234,28	1754,70
234,50	1614,62
234,71	1723,57
234,93	1828,84
235,15	1732,99
235,37	1583,90
235,58	1709,23
235,80	1653,12
236,02	1656,40
236,23	1765,35
236,45	1643,70
236,67	1730,94
236,88	1723,57
237,10	1768,63
237,32	1787,88
237,53	1709,23
237,75	1686,71
237,97	1575,30
238,18	1663,36
238,40	1738,73
238,62	1631,82
238,83	1671,96
239,05	1674,83
239,27	1671,96
239,48	1622,40
239,70	1690,39
239,92	1783,78
240,13	1795,66
240,35	1665,00
240,57	1701,04
240,78	1727,26
241,00	1565,06
241,22	1660,08
241,43	1850,95
241,65	1701,04
241,87	1839,08
242,08	1964,82
242,30	1622,81
242,52	1716,61
242,73	1769,04
242,95	1641,24
243,16	1730,53
243,38	1846,86
243,60	1735,45
243,81	1772,72
244,03	1773,54
244,25	1616,67
244,46	1667,87
244,68	1637,97
244,90	1740,77
245,11	1640,83
245,33	1688,76
245,55	1687,12
245,76	1688,35
245,98	1633,46
246,19	1859,56
246,41	1852,18
246,63	1758,80
246,84	1794,84
247,06	1703,91
247,28	1733,40
247,49	1682,20
247,71	1653,12
247,92	1772,31
248,14	1775,59
248,36	1774,77
248,57	1774,36
248,79	1817,78
249,01	1678,52
249,22	1725,21
249,44	1742,41
249,65	1698,99
249,87	1716,61
250,09	1752,65
250,30	1736,27
250,52	1690,39
250,73	1783,37
250,95	1642,06
251,17	1728,49
251,38	1678,92
251,60	1599,87
251,81	1793,20
252,03	1864,47
252,25	1597,42
252,46	1670,32
252,68	1810,40
252,89	1751,83
253,11	1714,56
253,33	1751,42
253,54	1604,79
253,76	1735,45
253,97	1800,16
254,19	1711,28
254,41	1591,68
254,62	1805,08
254,84	1789,92
255,05	1705,55
255,27	1785,01
255,49	1806,31
255,70	1805,90
255,92	1682,20
256,13	1619,53
256,35	1726,03
256,56	1820,64
256,78	1762,07
257,00	1789,11
257,21	1719,88
257,43	1635,92
257,64	1714,56
257,86	1794,02
258,08	1723,57
258,29	1820,23
258,51	1663,36
258,72	1739,14
258,94	1795,25
259,15	1738,73
259,37	1704,73
259,59	1581,44
259,80	1751,42
260,02	1677,29
260,23	1739,14
260,45	1609,70
260,66	1705,96
260,88	1716,61
261,09	1696,54
261,31	1701,04
261,53	1799,35
261,74	1833,75
261,96	1556,05
262,17	1631,82
262,39	1697,77
262,60	1708,83
262,82	1727,67
263,03	1681,79
263,25	1743,64
263,46	1683,02
263,68	1772,72
263,90	1728,08
264,11	1633,46
264,33	1860,37
264,54	1760,02
264,76	1741,59
264,97	1831,29
265,19	1639,19
265,40	1794,02
265,62	1664,59
265,83	1769,85
266,05	1724,39
266,26	1660,08
266,48	1866,11
266,70	1811,22
266,91	1558,50
267,13	1735,86
267,34	1662,54
267,56	1745,28
267,77	1669,50
267,99	1653,94
268,20	1853,00
268,42	1698,99
268,63	1590,86
268,85	1946,39
269,06	1802,62
269,28	1760,02
269,49	1730,12
269,71	1750,19
269,92	1706,78
270,14	1658,04
270,35	1674,01
270,57	1736,68
270,78	1722,34
271,00	1724,39
271,21	1930,82
271,43	1646,98
271,64	1692,85
271,86	1789,11
272,07	1586,36
272,29	1860,78
272,50	1660,90
272,72	1800,57
272,93	1778,46
273,15	1791,97
273,36	1795,66
273,58	1719,88
273,79	1670,32
274,01	1686,30
274,22	1660,49
274,44	1704,32
274,65	1729,71
274,87	1805,49
275,08	1786,24
275,30	1783,78
275,51	1909,12
275,73	1890,28
275,94	1674,01
276,16	1669,91
276,37	1690,39
276,59	1711,69
276,80	1708,42
277,02	1742,41
277,23	1641,65
277,45	1740,77
277,66	1520,41
277,88	1793,20
278,09	1852,18
278,30	1775,59
278,52	1668,68
278,73	1911,98
278,95	1723,57
279,16	1859,97
279,38	1771,90
279,59	1727,26
279,81	1686,71
280,02	1690,80
280,24	1648,21
280,45	1738,73
280,67	1827,20
280,88	1825,56
281,09	1639,60
281,31	1638,38
281,52	1674,01
281,74	1884,54
281,95	1734,63
282,17	1705,14
282,38	1781,32
282,60	1729,71
282,81	1793,20
283,02	1694,90
283,24	1691,21
283,45	1852,59
283,67	1620,76
283,88	1768,63
284,10	1686,71
284,31	1754,70
284,53	1669,09
284,74	1730,94
284,95	1717,02
285,17	1707,19
285,38	1672,78
285,60	1682,20
285,81	1626,50
286,03	1765,76
286,24	1772,31
286,45	1787,06
286,67	1728,90
286,88	1744,87
287,10	1804,26
287,31	1588,81
287,53	1731,35
287,74	1739,95
287,95	1620,35
288,17	1767,40
288,38	1751,83
288,60	1657,63
288,81	1674,42
289,02	1687,53
289,24	1822,28
289,45	1694,49
289,67	1776,41
289,88	1728,49
290,10	1745,28
290,31	1768,22
290,52	1696,54
290,74	1710,46
290,95	1773,54
291,17	1781,73
291,38	1652,30
291,59	1681,38
291,81	1676,88
292,02	1729,71
292,24	1753,06
292,45	1742,82
292,66	1720,29
292,88	1803,03
293,09	1736,27
293,31	1717,02
293,52	1718,25
293,73	1625,68
293,95	1767,81
294,16	1780,91
294,37	1781,73
294,59	1781,32
294,80	1886,18
295,02	1693,67
295,23	1620,35
295,44	1794,43
295,66	1662,95
295,87	1778,87
296,09	1672,78
296,30	1758,39
296,51	1692,44
296,73	1665,82
296,94	1668,68
297,15	1673,19
297,37	1640,42
297,58	1658,04
297,79	1725,21
298,01	1768,22
298,22	1820,64
298,44	1637,56
298,65	1728,90
298,86	1797,30
299,08	1665,41
299,29	1737,91
299,50	1667,05
299,72	1654,76
299,93	1756,34
300,14	1785,83
300,36	1613,39
300,57	1642,06
300,79	1693,67
301,00	1804,26
301,21	1561,78
301,43	1675,65
301,64	1660,49
301,85	1700,22
302,07	1819,83
302,28	1640,01
302,49	1846,86
302,71	1710,05
302,92	1770,67
303,13	1810,40
303,35	1692,03
303,56	1762,48
303,77	1605,20
303,99	1712,92
304,20	1740,77
304,41	1634,28
304,63	1660,49
304,84	1785,42
305,05	1798,94
305,27	1799,35
305,48	1801,39
305,69	1705,14
305,91	1773,95
306,12	1706,37
306,33	1755,93
306,55	1723,98
306,76	1701,04
306,97	1674,83
307,19	1736,68
307,40	1788,29
307,61	1796,89
307,82	1683,43
308,04	1799,75
308,25	1791,15
308,46	1705,55
308,68	1730,12
308,89	1785,42
309,10	1684,25
309,32	1715,38
309,53	1641,65
309,74	1765,35
309,96	1671,96
310,17	1692,03
310,38	1671,14
310,59	1754,29
310,81	1728,49
311,02	1748,15
311,23	1753,06
311,45	1743,23
311,66	1732,99
311,87	1688,76
312,09	1804,67
312,30	1712,92
312,51	1752,65
312,72	1737,91
312,94	1803,85
313,15	1695,72
313,36	1754,29
313,58	1646,16
313,79	1846,04
314,00	1700,22
314,21	1615,44
314,43	1760,02
314,64	1702,27
314,85	1676,47
315,06	1656,81
315,28	1829,25
315,49	1793,61
315,70	1746,10
315,92	1793,61
316,13	1898,88
316,34	1757,16
316,55	1740,36
316,77	1634,69
316,98	1850,95
317,19	1678,11
317,40	1605,20
317,62	1599,46
317,83	1820,23
318,04	1665,41
318,25	1706,78
318,47	1694,90
318,68	1727,67
318,89	1769,04
319,11	1680,15
319,32	1756,34
319,53	1803,85
319,74	1762,48
319,96	1763,71
320,17	1714,15
320,38	1610,52
320,59	1810,81
320,81	1752,65
321,02	1693,67
321,23	1687,94
321,44	1795,66
321,65	1703,50
321,87	1728,08
322,08	1863,65
322,29	1711,69
322,50	1630,59
322,72	1711,69
322,93	1716,61
323,14	1664,59
323,35	1702,27
323,57	1828,02
323,78	1719,06
323,99	1750,60
324,20	1834,57
324,41	1641,65
324,63	1749,78
324,84	1723,98
325,05	1758,80
325,26	1776,82
325,48	1704,73
325,69	1713,74
325,90	1732,17
326,11	1719,47
326,32	1744,46
326,54	1784,19
326,75	1739,14
326,96	1703,09
327,17	1768,22
327,39	1760,43
327,60	1733,81
327,81	1674,01
328,02	1695,31
328,23	1698,18
328,45	1779,68
328,66	1707,60
328,87	1775,18
329,08	1828,43
329,29	1756,34
329,51	1684,66
329,72	1669,09
329,93	1786,24
330,14	1657,63
330,35	1725,62
330,56	1688,76
330,78	1767,40
330,99	1753,88
331,20	1750,19
331,41	1809,59
331,62	1656,40
331,84	1705,55
332,05	1708,83
332,26	1766,99
332,47	1789,52
332,68	1673,19
332,90	1697,77
333,11	1587,59
333,32	1893,96
333,53	1754,70
333,74	1581,85
333,95	1813,27
334,17	1758,39
334,38	1726,85
334,59	1661,31
334,80	1691,62
335,01	1839,90
335,22	1758,80
335,44	1732,17
335,65	1670,73
335,86	1794,43
336,07	1736,27
336,28	1674,42
336,49	1685,07
336,71	1602,33
336,92	1832,93
337,13	1716,61
337,34	1658,85
337,55	1904,20
337,76	1690,80
337,97	1777,23
338,19	1750,19
338,40	1688,35
338,61	1782,14
338,82	1764,94
339,03	1727,26
339,24	1633,46
339,45	1633,87
339,67	1755,11
339,88	1742,00
340,09	1739,54
340,30	1690,80
340,51	1897,24
340,72	1742,82
340,93	1632,64
341,15	1734,22
341,36	1856,69
341,57	1675,65
341,78	1679,33
341,99	1789,52
342,20	1829,25
342,41	1666,23
342,62	1862,42
342,84	1578,57
343,05	1841,12
343,26	1630,18
343,47	1820,23
343,68	1607,25
343,89	1734,63
344,10	1758,39
344,31	1680,97
344,53	1589,22
344,74	1694,90
344,95	1698,18
345,16	1694,49
345,37	1765,76
345,58	1739,54
345,79	1602,74
346,00	1622,81
346,21	1640,42
346,42	1679,74
346,64	1691,62
346,85	1779,68
347,06	1726,85
347,27	1635,92
347,48	1843,58
347,69	1803,44
347,90	1698,59
348,11	1799,75
348,32	1649,43
348,53	1703,50
348,75	1635,92
348,96	1660,08
349,17	1630,18
349,38	1698,18
349,59	1742,82
349,80	1637,15
350,01	1884,95
350,22	1851,36
350,43	1711,69
350,64	1805,49
350,85	1845,63
351,06	1637,97
351,28	1683,02
351,49	1641,24
351,70	1695,72
351,91	1605,61
352,12	1700,22
352,33	1748,15
352,54	1584,72
352,75	1637,56
352,96	1664,59
353,17	1748,97
353,38	1756,34
353,59	1849,32
353,80	1867,75
354,01	1803,44
354,22	1670,73
354,44	1675,65
354,65	1859,56
354,86	1697,36
355,07	1633,46
355,28	1578,98
355,49	1658,45
355,70	1644,11
355,91	1799,75
356,12	1614,62
356,33	1616,26
356,54	1752,24
356,75	1736,27
356,96	1712,10
357,17	1849,32
357,38	1645,34
357,59	1713,33
357,80	1784,60
358,01	1732,58
358,22	1842,35
358,43	1735,04
358,64	1745,28
358,85	1651,48
359,07	1812,86
359,28	1637,56
359,49	1719,88
359,70	1607,66
359,91	1711,69
360,12	1667,05
360,33	1814,50
360,54	1643,29
360,75	1626,50
360,96	1672,37
361,17	1590,86
361,38	1631,41
361,59	1845,22
361,80	1607,25
362,01	1755,52
362,22	1689,98
362,43	1586,36
362,64	1700,63
362,85	1760,84
363,06	1884,95
363,27	1754,70
363,48	1824,74
363,69	1871,43
363,90	1619,53
364,11	1739,14
364,32	1664,59
364,53	1751,83
364,74	1773,95
364,95	1785,42
365,16	1682,20
365,37	1873,48
365,58	1662,13
365,79	1651,07
366,00	1742,00
366,21	1631,41
366,42	1793,61
366,63	1816,55
366,84	1653,53
367,05	1719,06
367,26	1760,02
367,47	1794,02
367,68	1739,54
367,89	1740,36
368,10	1735,45
368,31	1662,54
368,52	1780,91
368,73	1755,93
368,94	1647,39
369,15	1680,56
369,36	1651,07
369,57	1637,15
369,78	1645,75
369,99	1709,23
370,20	1774,77
370,40	1641,24
370,61	1628,54
370,82	1704,73
371,03	1708,01
371,24	1739,14
371,45	1656,81
371,66	1545,40
371,87	1737,50
372,08	1751,01
372,29	1739,14
372,50	1770,26
372,71	1721,93
372,92	1794,02
373,13	1628,14
373,34	1641,65
373,55	1629,77
373,76	1794,02
373,97	1756,75
374,18	1694,49
374,39	1731,35
374,60	1863,24
374,81	1686,30
375,01	1611,75
375,22	1757,16
375,43	1656,40
375,64	1663,36
375,85	1623,63
376,06	1649,84
376,27	1715,38
376,48	1707,60
376,69	1793,61
376,90	1764,94
377,11	1802,62
377,32	1699,81
377,53	1736,68
377,74	1703,09
377,94	1617,49
378,15	1738,32
378,36	1808,77
378,57	1561,37
378,78	1855,05
378,99	1638,78
379,20	1888,64
379,41	1750,60
379,62	1723,57
379,83	1600,28
380,04	1738,32
380,25	1708,01
380,45	1689,16
380,66	1787,06
380,87	1671,14
381,08	1735,86
381,29	1640,42
381,50	1728,08
381,71	1728,90
381,92	1688,76
382,13	1572,84
382,34	1732,58
382,55	1690,39
382,75	1786,24
382,96	1794,02
383,17	1620,35
383,38	1842,35
383,59	1836,21
383,80	1606,02
384,01	1712,10
384,22	1815,73
384,43	1797,71
384,63	1739,14
384,84	1681,38
385,05	1765,76
385,26	1718,25
385,47	1731,35
385,68	1662,13
385,89	1803,44
386,10	1690,39
386,30	1745,69
386,51	1615,44
386,72	1669,91
386,93	1610,93
387,14	1723,57
387,35	1766,17
387,56	1853,41
387,77	1633,46
387,97	1679,74
388,18	1668,28
388,39	1690,39
388,60	1707,60
388,81	1756,75
389,02	1733,40
389,23	1672,78
389,43	1698,59
389,64	1728,08
389,85	1666,64
390,06	1837,03
390,27	1616,26
390,48	1795,25
390,69	1655,99
390,89	1656,81
391,10	1687,94
391,31	1628,95
391,52	1689,57
391,73	1716,61
391,94	1683,84
392,14	1615,03
392,35	1602,74
392,56	1655,58
392,77	1706,78
392,98	1714,97
393,19	1771,08
393,39	1796,07
393,60	1717,02
393,81	1829,25
394,02	1848,50
394,23	1639,19
394,44	1567,92
394,64	1734,22
394,85	1719,06
395,06	1797,71
395,27	1708,42
395,48	1773,13
395,69	1769,45
395,89	1722,34
396,10	1703,50
396,31	1902,15
396,52	1591,68
396,73	1694,49
396,93	1638,38
397,14	1739,54
397,35	1783,37
397,56	1796,89
397,77	1625,68
397,97	1652,71
398,18	1764,12
398,39	1725,21
398,60	1689,16
398,81	1636,74
399,01	1646,57
399,22	1727,67
399,43	1837,44
399,64	1830,47
399,85	1786,24
400,05	1650,66
400,26	1573,25
400,47	1691,62
400,68	1653,94
400,89	1943,11
401,09	1635,10
401,30	1711,28
401,51	1779,28
401,72	1694,49
401,93	1914,03
402,13	1696,54
402,34	1782,14
402,55	1700,22
402,76	1673,19
402,96	1728,90
403,17	1716,20
403,38	1803,85
403,59	1795,66
403,80	1762,07
404,00	1801,39
404,21	1762,07
404,42	1665,82
404,63	1641,65
404,83	1719,88
405,04	1736,68
405,25	1819,01
405,46	1840,71
405,66	1719,06
405,87	1748,56
406,08	1685,89
406,29	1821,05
406,49	1683,84
406,70	1785,42
406,91	1564,24
407,12	1683,43
407,32	1857,92
407,53	1772,72
407,74	1831,70
407,95	1855,05
408,15	1729,71
408,36	1649,84
408,57	1820,64
408,78	1771,49
408,98	1788,29
409,19	1810,81
409,40	1701,86
409,61	1732,58
409,81	1758,80
410,02	1728,90
410,23	1774,77
410,44	1820,64
410,64	1637,15
410,85	1781,73
411,06	1729,71
411,26	1878,81
411,47	1790,33
411,68	1948,85
411,89	1794,02
412,09	1789,92
412,30	1830,88
412,51	1769,85
412,72	1811,63
412,92	1805,08
413,13	1781,73
413,34	1762,07
413,54	1787,47
413,75	1857,10
413,96	1846,86
414,17	1791,15
414,37	1912,39
414,58	1985,30
414,79	1902,97
414,99	1964,41
415,20	1914,03
415,41	1754,29
415,61	1877,99
415,82	1943,52
416,03	1951,71
416,24	1883,72
416,44	1950,49
416,65	2007,01
416,86	2030,77
417,06	1902,56
417,27	1955,40
417,48	1991,85
417,68	1960,32
417,89	2077,46
418,10	1995,54
418,30	2127,43
418,51	2137,26
418,72	2075,82
418,92	2069,68
419,13	2105,72
419,34	2093,02
419,55	2214,26
419,75	3048,61
419,96	2204,02
420,17	2387,93
420,37	2210,58
420,58	2301,10
420,79	2208,12
420,99	2315,43
421,20	2502,21
421,41	2359,26
421,61	2433,40
421,82	2371,55
422,03	2455,10
422,23	2427,25
422,44	2493,61
422,65	2679,56
422,85	2480,50
423,06	2626,32
423,26	2713,56
423,47	2790,15
423,68	2770,08
423,88	2799,57
424,09	2806,54
424,30	2861,01
424,50	2791,38
424,71	2920,40
424,92	3019,53
425,12	3226,78
425,33	3212,85
425,54	3144,45
425,74	3245,62
425,95	3316,07
426,15	3280,03
426,36	3256,68
426,57	3515,54
426,77	3529,06
426,98	3514,31
427,19	3637,19
427,39	3667,09
427,60	3835,03
427,81	3885,41
428,01	3937,02
428,22	4172,12
428,42	4052,11
428,63	4150,41
428,84	4288,04
429,04	4302,37
429,25	4492,83
429,45	4340,46
429,66	4866,38
429,87	4761,12
430,07	5140,81
430,28	5004,83
430,49	5129,75
430,69	5314,07
430,90	5262,87
431,10	5340,28
431,31	5648,30
431,52	5855,55
431,72	5843,67
431,93	6012,02
432,13	6287,67
432,34	6499,43
432,55	6252,86
432,75	6818,92
432,96	6956,54
433,16	6966,37
433,37	7253,91
433,58	7539,80
433,78	7490,24
433,99	7320,26
434,19	7862,15
434,40	7971,51
434,60	8278,30
434,81	8481,05
435,02	8415,51
435,22	8896,79
435,43	8981,98
435,63	9100,35
435,84	9482,91
436,05	9915,04
436,25	9440,73
436,46	10281,62
436,66	10320,53
436,87	10632,64
437,07	10574,89
437,28	10921,41
437,48	11372,78
437,69	11094,67
437,90	11824,97
438,10	11849,96
438,31	12281,67
438,51	12751,06
438,72	12900,56
438,92	13036,55
439,13	13336,37
439,34	13533,80
439,54	14081,42
439,75	13914,72
439,95	14332,09
440,16	14825,25
440,36	15594,46
440,57	15286,04
440,77	16466,49
440,98	15994,64
441,18	16260,05
441,39	16429,62
441,60	17797,67
441,80	17556,01
442,01	17496,21
442,21	18570,98
442,42	18251,91
442,62	18988,36
442,83	19327,09
443,03	19891,51
443,24	20181,91
443,44	20566,11
443,65	20971,61
443,85	21384,48
444,06	22233,98
444,26	22395,36
444,47	22486,70
444,67	23884,64
444,88	23662,23
445,09	23897,75
445,29	24581,36
445,50	25454,20
445,70	25165,03
445,91	25923,60
446,11	26266,02
446,32	27799,95
446,52	28103,87
446,73	28673,61
446,93	29078,70
447,14	29506,31
447,34	30377,11
447,55	30345,57
447,75	31335,56
447,96	32497,99
448,16	32415,66
448,37	33408,10
448,57	33716,94
448,78	34543,09
448,98	34532,03
449,19	35336,88
449,39	36162,21
449,60	36895,80
449,80	38084,44
450,01	38647,22
450,21	38652,13
450,42	39965,29
450,62	40559,61
450,83	41407,88
451,03	41489,39
451,23	41608,17
451,44	42329,47
451,64	43381,30
451,85	43080,66
452,05	44746,89
452,26	44129,63
452,46	45160,99
452,67	45287,96
452,87	46038,34
453,08	45584,51
453,28	46071,51
453,49	47793,86
453,69	47152,43
453,90	47920,42
454,10	49375,71
454,31	49154,12
454,51	49521,52
454,71	48913,28
454,92	48203,45
455,12	47762,73
455,33	49916,78
455,53	49976,58
455,74	51400,33
455,94	52722,91
456,15	51509,69
456,35	54070,06
456,55	51978,68
456,76	52813,02
456,96	54939,63
457,17	50997,29
457,37	55868,18
457,58	52351,82
457,78	54385,04
457,99	53055,09
458,19	49195,90
458,39	53234,08
458,60	52892,89
458,80	53137,42
459,01	50211,69
459,21	49884,83
459,42	50663,06
459,62	47453,07
459,82	51466,27
460,03	49002,98
460,23	50347,26
460,44	48327,15
460,64	45761,45
460,85	48733,05
461,05	45063,50
461,25	43654,09
461,46	47073,38
461,66	44944,31
461,87	42879,96
462,07	43022,50
462,27	41446,38
462,48	39964,88
462,68	41153,52
462,89	39946,45
463,09	39315,68
463,29	39181,33
463,50	38600,12
463,70	39053,94
463,91	37494,62
464,11	35760,40
464,31	36782,34
464,52	36607,85
464,72	36991,64
464,93	35796,45
465,13	36385,85
465,33	34851,10
465,54	32663,05
465,74	32390,26
465,95	32808,05
466,15	33628,88
466,35	32568,85
466,56	31625,96
466,76	31617,77
466,96	30583,55
467,17	30174,36
467,37	29984,72
467,58	29388,76
467,78	29198,30
467,98	29848,73
468,19	27771,69
468,39	28448,74
468,59	28667,88
468,80	27737,28
469,00	26939,80
469,21	26548,64
469,41	26279,94
469,61	27188,01
469,82	25538,99
470,02	26120,20
470,22	26738,69
470,43	25707,74
470,63	24398,27
470,83	25957,59
471,04	24652,22
471,24	24525,65
471,45	23898,16
471,65	23749,47
471,85	23185,87
472,06	23369,78
472,26	23255,09
472,46	22809,46
472,67	22949,95
472,87	22412,56
473,07	22071,37
473,28	21472,54
473,48	21996,00
473,68	21786,70
473,89	21354,99
474,09	20953,18
474,29	20564,47
474,50	20939,25
474,70	20147,10
474,90	20616,08
475,11	20326,09
475,31	20208,13
475,51	19839,49
475,72	19545,40
475,92	19243,12
476,12	18538,62
476,33	19392,63
476,53	18985,08
476,73	18676,66
476,93	18701,23
477,14	17931,60
477,34	17890,24
477,54	17820,60
477,75	17781,69
477,95	17515,87
478,15	17390,94
478,36	17219,73
478,56	17180,82
478,76	17118,15
478,97	17063,27
479,17	16521,37
479,37	16480,00
479,57	16233,43
479,78	16178,54
479,98	15893,06
480,18	15887,73
480,39	15943,44
480,59	15724,71
480,79	15566,20
480,99	15453,97
481,20	15054,21
481,40	15403,59
481,60	15095,17
481,81	14799,85
482,01	14802,31
482,21	14568,02
482,41	14642,16
482,62	14440,64
482,82	14343,56
483,02	14302,19
483,23	14072,41
483,43	14168,26
483,63	13768,08
483,83	13974,52
484,04	14101,49
484,24	13528,88
484,44	13671,01
484,64	13433,04
484,85	13233,15
485,05	13276,98
485,25	13351,94
485,45	13064,81
485,66	13091,85
485,86	12902,61
486,06	12831,75
486,26	12865,75
486,47	12819,47
486,67	12605,25
486,87	12750,24
487,07	12617,13
487,28	12348,43
487,48	12262,01
487,68	12509,40
487,88	12274,30
488,09	12224,74
488,29	12138,72
488,49	12218,18
488,69	11964,23
488,90	11902,38
489,10	11841,36
489,30	11645,57
489,50	11721,75
489,71	11692,67
489,91	11638,20
490,11	11576,76
490,31	11593,55
490,52	11312,57
490,72	11401,04
490,92	11592,73
491,12	11379,33
491,32	11247,44
491,53	11320,35
491,73	11175,77
491,93	11102,45
492,13	11153,24
492,33	11142,18
492,54	10944,75
492,74	11156,92
492,94	10967,28
493,14	10951,31
493,35	10855,46
493,55	10920,18
493,75	10897,24
493,95	10927,14
494,15	10850,55
494,36	10931,65
494,56	10843,18
494,76	10796,48
494,96	10854,64
495,16	10783,37
495,37	10970,56
495,57	10660,91
495,77	10766,17
495,97	10764,94
496,17	10692,85
496,37	10771,50
496,58	10976,29
496,78	10700,23
496,98	10692,44
497,18	10918,13
497,38	10925,91
497,59	10990,22
497,79	10771,09
497,99	10974,65
498,19	10863,66
498,39	11058,21
498,59	10832,53
498,80	10979,57
499,00	11050,43
499,20	10932,47
499,40	10743,64
499,60	10917,72
499,80	11079,51
500,01	10982,44
500,21	11017,66
500,41	11033,23
500,61	11171,26
500,81	11165,94
501,01	11112,28
501,22	11153,65
501,42	11163,48
501,62	11177,81
501,82	11412,51
502,02	11299,46
502,22	11236,79
502,42	11421,93
502,63	11719,71
502,83	11568,16
503,03	11576,35
503,23	11572,25
503,43	11683,25
503,63	11779,10
503,83	12006,42
504,04	11693,49
504,24	12035,91
504,44	11933,51
504,64	12043,69
504,84	12242,76
505,04	12108,82
505,24	12323,86
505,44	12339,01
505,65	12556,51
505,85	12715,43
506,05	12592,55
506,25	12565,93
506,45	12712,15
506,65	12744,51
506,85	12889,10
507,05	13158,20
507,26	13158,20
507,46	13258,14
507,66	13213,49
507,86	13135,26
508,06	13414,60
508,26	13319,58
508,46	13549,77
508,66	13516,59
508,86	13817,24
509,06	13841,81
509,27	13963,46
509,47	13886,05
509,67	13958,14
509,87	14088,39
510,07	14212,08
510,27	14238,30
510,47	14470,54
510,67	14502,90
510,87	14737,59
511,07	14557,37
511,28	14793,30
511,48	14778,55
511,68	15026,36
511,88	14867,43
512,08	14935,02
512,28	15127,53
512,48	15316,76
512,68	15255,73
512,88	15445,78
513,08	15769,36
513,28	15935,24
513,48	15902,07
513,68	16090,07
513,89	15988,49
514,09	16090,89
514,29	16126,53
514,49	16294,46
514,69	16234,25
514,89	16542,67
515,09	16745,01
515,29	16805,22
515,49	16748,29
515,69	17053,85
515,89	17222,60
516,09	17353,67
516,29	17115,69
516,49	17371,69
516,69	17644,89
516,89	17562,56
517,09	17633,42
517,29	17793,98
517,50	17952,49
517,70	17986,90
517,90	18132,31
518,10	18105,68
518,30	18540,67
518,50	18548,04
518,70	18695,91
518,90	19009,66
519,10	19039,15
519,30	19056,76
519,50	19249,68
519,70	19345,52
519,90	19420,89
520,10	19746,11
520,30	19765,77
520,50	19635,51
520,70	19831,71
520,90	20228,61
521,10	20083,61
521,30	20327,32
521,50	20659,50
521,70	20871,26
521,90	20802,04
522,10	21107,19
522,30	20761,49
522,50	21058,03
522,70	21153,88
522,90	21341,47
523,10	21477,05
523,30	21504,08
523,50	21733,86
523,70	21773,18
523,90	21754,34
524,10	22060,72
524,30	21941,94
524,50	22125,84
524,70	22265,11
524,90	22457,62
525,10	22519,05
525,30	22524,79
525,50	22854,10
525,70	22774,64
525,90	22942,17
526,10	22980,26
526,30	23259,19
526,50	23304,66
526,70	23279,26
526,90	23384,12
527,10	23279,26
527,30	23730,22
527,50	23849,82
527,70	23878,91
527,90	23707,70
528,10	23914,13
528,30	24178,73
528,50	24171,77
528,70	24144,32
528,90	24403,60
529,10	24458,89
529,30	24266,79
529,50	24719,80
529,70	24590,78
529,90	24814,42
530,10	24992,59
530,29	24886,51
530,49	25083,93
530,69	25145,37
530,89	25201,89
531,09	25125,30
531,29	25260,47
531,49	25306,75
531,69	25339,93
531,89	25282,99
532,09	25609,44
532,29	25550,87
532,49	25422,66
532,69	25719,62
532,89	25512,78
533,09	25608,21
533,29	25781,06
533,49	25763,45
533,68	25686,44
533,88	26151,33
534,08	25976,03
534,28	25968,24
534,48	26169,76
534,68	25971,93
534,88	26090,71
535,08	26382,75
535,28	26460,58
535,48	26309,03
535,68	26459,35
535,88	26487,61
536,08	26615,40
536,27	26516,69
536,47	26606,80
536,67	26913,59
536,87	26554,78
537,07	26485,97
537,27	27088,48
537,47	26741,97
537,67	26368,01
537,87	26883,69
538,07	27081,11
538,27	26920,96
538,46	27106,10
538,66	26846,41
538,86	26679,71
539,06	27093,40
539,26	26853,38
539,46	26914,81
539,66	27024,18
539,86	27006,56
540,06	27147,05
540,25	26966,42
540,45	27009,84
540,65	26998,78
540,85	27124,53
541,05	27286,32
541,25	27077,83
541,45	27083,98
541,65	27005,34
541,85	27079,88
542,04	27156,48
542,24	27182,69
542,44	27229,38
542,64	27298,19
542,84	27204,40
543,04	26899,25
543,24	27034,83
543,43	27079,06
543,63	27376,43
543,83	27111,83
544,03	26998,78
544,23	27139,27
544,43	27137,22
544,63	27027,04
544,82	27436,64
545,02	26986,08
545,22	27450,15
545,42	26784,97
545,62	27305,57
545,82	27179,82
546,02	27252,32
546,21	27097,08
546,41	27179,82
546,61	26744,42
546,81	27065,55
547,01	27056,94
547,21	27126,98
547,40	26906,62
547,60	27077,01
547,80	26827,98
548,00	26949,22
548,20	26886,96
548,40	26851,33
548,59	26950,45
548,79	26913,59
548,99	27092,17
549,19	26926,28
549,39	26851,33
549,59	26997,55
549,78	26836,99
549,98	26843,14
550,18	26776,78
550,38	26858,70
550,58	26703,05
550,77	26822,25
550,97	26821,43
551,17	26466,72
551,37	26988,95
551,57	26909,49
551,76	26626,05
551,96	26454,02
552,16	26533,89
552,36	26783,74
552,56	26582,22
552,75	26628,92
552,95	26511,77
553,15	26683,39
553,35	26925,87
553,55	26231,61
553,74	26552,73
553,94	26227,52
554,14	26357,36
554,34	26347,53
554,54	26465,90
554,73	26229,15
554,93	26317,22
555,13	26387,67
555,33	26062,45
555,53	26211,54
555,72	26084,57
555,92	26347,94
556,12	26073,92
556,32	26120,61
556,51	26048,93
556,71	26117,34
556,91	25986,68
557,11	25878,13
557,30	25938,75
557,50	26020,26
557,70	25727,40
557,90	25945,31
558,10	25884,28
558,29	25800,72
558,49	25933,43
558,69	25704,06
558,89	25602,07
559,08	25737,64
559,28	25601,25
559,48	25435,36
559,68	25765,09
559,87	25733,96
560,07	25434,95
560,27	25564,79
560,47	25466,90
560,66	25337,06
560,86	25289,14
561,06	25192,47
561,25	25343,61
561,45	25191,65
561,65	25301,43
561,85	25155,61
562,04	25278,49
562,24	25284,22
562,44	25253,50
562,64	25180,59
562,83	25347,71
563,03	25208,04
563,23	25114,65
563,42	24738,64
563,62	25021,26
563,82	24798,44
564,02	24927,47
564,21	24952,86
564,41	24846,37
564,61	24881,59
564,80	24815,24
565,00	24727,17
565,20	24654,27
565,40	24746,84
565,59	24560,06
565,79	24849,23
565,99	24653,45
566,18	24739,05
566,38	24636,65
566,58	24484,29
566,78	24464,63
566,97	24579,72
567,17	24604,71
567,37	24431,86
567,56	24476,50
567,76	24576,85
567,96	24358,13
568,15	24306,11
568,35	24194,70
568,55	24452,75
568,74	24039,47
568,94	24170,95
569,14	24197,98
569,33	24024,31
569,53	23948,13
569,73	24256,96
569,92	24137,36
570,12	24037,83
570,32	23950,58
570,52	23975,98
570,71	23893,65
570,91	23909,63
571,11	23984,17
571,30	23770,36
571,50	23689,67
571,70	24004,65
571,89	23670,83
572,09	23851,05
572,28	23586,87
572,48	23686,40
572,68	23418,93
572,87	23744,97
573,07	23742,92
573,27	23595,88
573,46	23728,59
573,66	23610,21
573,86	23482,01
574,05	23710,56
574,25	23378,79
574,45	23355,85
574,64	23496,76
574,84	23692,95
575,04	23432,45
575,23	23621,68
575,43	23390,67
575,62	23403,78
575,82	23314,49
576,02	23043,33
576,21	23240,76
576,41	23228,88
576,61	23274,35
576,80	23175,63
577,00	22991,32
577,19	22979,85
577,39	23383,30
577,59	23058,49
577,78	23171,13
577,98	23246,08
578,18	22889,33
578,37	23024,49
578,57	22955,27
578,76	22997,87
578,96	22875,81
579,16	22980,26
579,35	23041,29
579,55	22729,18
579,74	22800,86
579,94	22677,98
580,14	23068,32
580,33	22918,82
580,53	22692,72
580,72	22724,26
580,92	22731,22
581,12	22523,15
581,31	22660,36
581,51	22679,62
581,70	22505,54
581,90	22680,84
582,10	22524,38
582,29	22636,20
582,49	22499,80
582,68	22558,38
582,88	22536,67
583,07	22581,31
583,27	22424,44
583,47	22695,18
583,66	22555,10
583,86	22112,74
584,05	22261,01
584,25	22258,14
584,44	22204,49
584,64	22234,80
584,84	22071,37
585,03	22102,09
585,23	21846,91
585,42	21860,84
585,62	21705,19
585,81	21929,65
586,01	21994,77
586,20	21959,96
586,40	21823,56
586,60	21885,00
586,79	21645,39
586,99	21775,64
587,18	21707,24
587,38	21590,92
587,57	21374,24
587,77	21631,06
587,96	21617,13
588,16	21398,41
588,35	21639,66
588,55	21685,12
588,75	21397,18
588,94	21352,53
589,14	21365,23
589,33	21083,02
589,53	21365,64
589,72	20949,90
589,92	21074,01
590,11	21148,14
590,31	21281,26
590,50	21119,06
590,70	21049,43
590,89	21257,92
591,09	20951,54
591,28	21033,46
591,48	20790,16
591,67	20892,56
591,87	20709,88
592,06	20748,79
592,26	20682,03
592,45	20594,78
592,65	20614,03
592,84	20459,21
593,04	20434,63
593,23	20308,07
593,43	20367,05
593,62	20385,07
593,82	20194,61
594,01	20097,54
594,21	20293,73
594,40	20187,65
594,60	20020,94
594,79	20160,20
594,99	19955,00
595,18	19966,47
595,38	19919,77
595,57	19909,12
595,77	19972,61
595,96	19840,31
596,16	19805,09
596,35	19728,49
596,55	19559,74
596,74	19725,22
596,94	19445,87
597,13	19474,95
597,33	19450,79
597,52	19418,84
597,72	19196,02
597,91	19533,94
598,11	19194,38
598,30	19179,64
598,50	19173,90
598,69	19149,33
598,88	19068,64
599,08	18997,78
599,27	18959,69
599,47	18958,46
599,66	18924,05
599,86	18811,41
600,05	18659,45
600,25	18833,94
600,44	18625,46
600,64	18616,45
600,83	18608,66
601,02	18560,74
601,22	18480,87
601,41	18473,09
601,61	18289,59
601,80	18340,38
602,00	18403,87
602,19	18136,40
602,38	17959,46
602,58	17927,92
602,77	17835,35
602,97	17759,98
603,16	17941,44
603,36	17733,36
603,55	17864,43
603,74	17516,28
603,94	17599,01
604,13	17867,71
604,33	17517,51
604,52	17370,87
604,72	17475,32
604,91	17409,78
605,10	17488,83
605,30	17326,23
605,49	17442,14
605,69	17311,89
605,88	17126,75
606,07	17209,49
606,27	17241,85
606,46	17131,67
606,66	16956,77
606,85	16618,45
607,04	16751,57
607,24	16760,17
607,43	16736,00
607,63	16550,05
607,82	16593,87
608,01	16586,91
608,21	16328,45
608,40	16442,73
608,60	16264,56
608,79	16377,20
608,98	16275,21
609,18	16402,59
609,37	16199,02
609,57	15928,28
609,76	16077,37
609,95	15934,43
610,15	15859,47
610,34	15975,39
610,53	15703,41
610,73	15606,34
610,92	15647,71
611,11	15504,76
611,31	15632,56
611,50	15314,71
611,70	15406,05
611,89	15285,63
612,08	15432,26
612,28	15311,02
612,47	15287,27
612,66	15170,12
612,86	15284,40
613,05	15170,12
613,24	15161,52
613,44	15064,45
613,63	15020,21
613,82	15000,55
614,02	14966,56
614,21	14796,98
614,41	14832,21
614,60	14853,92
614,79	14627,00
614,99	14723,67
615,18	14656,90
615,37	14565,97
615,57	14693,77
615,76	14517,64
615,95	14482,01
616,15	14471,36
616,34	14611,44
616,53	14584,81
616,73	14475,86
616,92	14433,26
617,11	14364,86
617,30	14344,79
617,50	14247,31
617,69	14504,94
617,88	14348,07
618,08	14368,55
618,27	14281,71
618,46	14193,65
618,66	14164,98
618,85	14034,73
619,04	14205,12
619,24	14394,76
619,43	14331,69
619,62	14146,55
619,82	14183,82
620,01	14069,55
620,20	13967,97
620,39	14085,93
620,59	14101,90
620,78	14185,05
620,97	14191,60
621,17	14095,76
621,36	14061,76
621,55	14052,75
621,74	14090,43
621,94	13841,40
622,13	14119,52
622,32	14015,89
622,52	14025,72
622,71	14081,83
622,90	14050,70
623,09	13960,59
623,29	13745,15
623,48	13906,12
623,67	13742,28
623,86	13993,77
624,06	13756,62
624,25	13791,43
624,44	14010,15
624,64	13796,76
624,83	13746,79
625,02	13670,19
625,21	13779,96
625,41	13679,61
625,60	13605,89
625,79	13426,89
625,98	13617,35
626,18	13625,96
626,37	13614,90
626,56	13370,37
626,75	13597,28
626,95	13346,61
627,14	13346,20
627,33	13449,83
627,52	13323,68
627,72	13261,01
627,91	13428,53
628,10	13304,42
628,29	13369,96
628,49	13263,06
628,68	13265,10
628,87	13207,76
629,06	13340,47
629,25	13043,10
629,45	13084,88
629,64	13194,24
629,83	13063,99
630,02	12896,06
630,22	12880,90
630,41	12853,05
630,60	12838,72
630,79	12764,17
630,98	12730,17
631,18	12654,81
631,37	12506,13
631,56	12670,37
631,75	12751,47
631,94	12461,89
632,14	12453,29
632,33	12422,98
632,52	12244,40
632,71	12946,85
632,90	12445,10
633,10	12218,59
633,29	12206,30
633,48	12181,32
633,67	12128,48
633,86	12238,25
634,06	12061,31
634,25	12124,38
634,44	12095,71
634,63	11921,64
634,82	11791,38
635,02	11827,43
635,21	11705,78
635,40	11742,64
635,59	11584,13
635,78	11750,84
635,97	11619,36
636,17	11578,40
636,36	11677,11
636,55	11526,38
636,74	11591,91
636,93	11400,63
637,12	11351,89
637,32	11528,43
637,51	11160,20
637,70	11286,36
637,89	11149,14
638,08	11280,21
638,27	11401,45
638,47	11156,10
638,66	11169,21
638,85	10956,22
639,04	11095,49
639,23	11038,55
639,42	10926,73
639,62	11093,44
639,81	10941,89
640,00	10887,41
640,19	10791,16
640,38	10760,85
640,57	10714,97
640,76	10701,46
640,95	10603,15
641,15	10449,97
641,34	10611,75
641,53	10477,00
641,72	10509,36
641,91	10447,10
642,10	10261,96
642,29	10414,33
642,49	10295,55
642,68	10112,05
642,87	10230,83
643,06	10245,58
643,25	10198,07
643,44	10042,42
643,63	10135,40
643,82	10095,67
644,01	10037,09
644,21	9973,20
644,40	10108,77
644,59	9822,47
644,78	9863,02
644,97	10003,92
645,16	9911,35
645,35	9788,06
645,54	9802,40
645,73	9709,01
645,92	9790,11
646,12	9607,84
646,31	9548,04
646,50	9586,54
646,69	9665,18
646,88	9385,43
647,07	9537,39
647,26	9442,36
647,45	9453,83
647,64	9363,31
647,83	9407,55
648,02	9487,83
648,22	9309,25
648,41	9171,62
648,60	9173,26
648,79	9133,53
648,98	9253,13
649,17	8968,46
649,36	8874,26
649,55	8950,44
649,74	9002,87
649,93	8830,02
650,12	8995,50
650,31	8997,96
650,50	8850,50
650,69	8946,35
650,88	8962,73
651,08	8705,10
651,27	8897,20
651,46	8821,83
651,65	8587,13
651,84	8502,76
652,03	8556,82
652,22	8531,43
652,41	8461,39
652,60	8626,45
652,79	8589,18
652,98	8458,52
653,17	8347,11
653,36	8329,09
653,55	8233,24
653,74	8382,75
653,93	8241,85
654,12	8091,52
654,31	8127,57
654,50	8146,00
654,69	8202,11
654,88	8143,54
655,07	7951,44
655,26	7918,68
655,45	7969,88
655,64	7912,12
655,83	7907,21
656,02	7988,31
656,21	7736,41
656,40	7738,86
656,59	7877,31
656,78	7671,69
656,97	7745,83
657,17	7837,99
657,36	7631,55
657,55	7781,87
657,74	7692,17
657,93	7615,58
658,12	7577,89
658,31	7602,88
658,50	7440,68
658,69	7319,85
658,87	7595,10
659,06	7356,30
659,25	7375,15
659,44	7281,76
659,63	7460,34
659,82	7457,88
660,01	7301,42
660,20	7286,67
660,39	7335,00
660,58	7157,65
660,77	7175,67
660,96	7151,10
661,15	7145,77
661,34	7058,12
661,53	7013,47
661,72	7061,40
661,91	6996,68
662,10	6918,04
662,29	6814,41
662,48	6851,27
662,67	6727,58
662,86	6735,77
663,05	6783,28
663,24	6957,36
663,43	6829,16
663,62	6934,01
663,81	6733,31
664,00	6877,08
664,19	6589,13
664,38	6701,36
664,57	6617,40
664,76	6570,70
664,94	6514,59
665,13	6580,53
665,32	6460,52
665,51	6569,47
665,70	6293,00
665,89	6506,81
666,08	6423,66
666,27	6331,50
666,46	6431,85
666,65	6303,24
666,84	6095,98
667,03	6199,61
667,22	6132,44
667,41	6274,98
667,60	6178,72
667,78	6201,25
667,97	6231,56
668,16	6222,14
668,35	6037,00
668,54	6068,13
668,73	5986,21
668,92	5958,77
669,11	5927,64
669,30	5976,79
669,49	5962,87
669,68	5991,54
669,86	5873,16
670,05	5823,19
670,24	5708,51
670,43	5810,50
670,62	5869,89
670,81	5764,21
671,00	5745,37
671,19	5824,01
671,38	5648,71
671,57	5793,29
671,75	5631,50
671,94	5726,94
672,13	5664,68
672,32	5617,99
672,51	5575,39
672,70	5706,05
672,89	5543,03
673,08	5512,31
673,26	5490,60
673,45	5411,55
673,64	5481,18
673,83	5456,20
674,02	5362,40
674,21	5627,41
674,40	5451,69
674,59	5515,18
674,77	5480,77
674,96	5444,32
675,15	5448,42
675,34	5345,61
675,53	5411,14
675,72	5260,00
675,91	5340,28
676,09	5336,19
676,28	5484,05
676,47	5199,38
676,66	5044,56
676,85	5304,24
677,04	5160,47
677,22	5188,32
677,41	5116,24
677,60	5105,18
677,79	5017,52
677,98	4970,42
678,17	4920,04
678,36	5008,92
678,54	4863,93
678,73	5032,68
678,92	4851,23
679,11	4986,80
679,30	4779,55
679,48	4879,08
679,67	4879,49
679,86	4888,50
680,05	4941,75
680,24	4708,28
680,43	4804,94
680,61	4708,69
680,80	4695,17
680,99	4750,47
681,18	4742,28
681,37	4758,66
681,55	4913,49
681,74	4814,77
681,93	4729,99
682,12	4594,41
682,31	4620,63
682,49	4644,38
682,68	4609,57
682,87	4605,47
683,06	4559,19
683,25	4624,72
683,43	4607,11
683,62	4525,19
683,81	4665,68
684,00	4599,74
684,19	4471,94
684,37	4444,50
684,56	4396,99
684,75	4547,31
684,94	4403,95
685,12	4492,42
685,31	4414,19
685,50	4449,83
685,69	4320,80
685,88	4340,06
686,06	4317,12
686,25	4219,63
686,44	4285,17
686,63	4207,35
686,81	4307,70
687,00	4190,55
687,19	4159,01
687,38	4270,42
687,56	4078,32
687,75	4244,62
687,94	4120,51
688,13	4099,62
688,31	4089,38
688,50	4087,75
688,69	4120,10
688,88	4160,65
689,06	4091,02
689,25	4027,94
689,44	3934,15
689,63	4028,76
689,81	3921,45
690,00	3968,55
690,19	4035,32
690,38	4025,90
690,56	3927,59
690,75	4109,04
690,94	3937,42
691,13	3948,07
691,31	3916,95
691,50	3880,08
691,69	3935,79
691,87	3838,71
692,06	3916,13
692,25	3881,72
692,44	3819,46
692,62	3802,67
692,81	4080,37
693,00	3885,00
693,18	3777,68
693,37	3912,03
693,56	3694,13
693,75	3725,26
693,93	3861,65
694,12	3905,48
694,31	3717,88
694,49	3624,50
694,68	3740,00
694,87	3685,11
695,05	3719,52
695,24	3738,36
695,43	3631,46
695,62	3608,93
695,80	3623,68
695,99	3771,13
696,18	3603,20
696,36	3821,51
696,55	3605,65
696,74	3443,05
696,92	3778,09
697,11	3679,38
697,30	3733,04
697,48	3554,04
697,67	3501,62
697,86	3524,14
698,04	3388,16
698,23	3484,00
698,42	3612,21
698,60	3449,19
698,79	3529,47
698,98	3539,30
699,16	3465,16
699,35	3415,19
699,54	3509,40
699,72	3398,81
699,91	3644,57
700,10	3411,51
700,28	3400,04
700,47	3618,76
700,66	3393,89
700,84	3352,12
701,03	3292,72
701,21	4046,79
701,40	3250,13
701,59	3366,86
701,77	3268,56
701,96	3281,67
702,15	3334,91
702,33	3316,89
702,52	3246,85
702,71	3326,31
702,89	3230,47
703,08	3301,33
703,26	3282,48
703,45	3368,09
703,64	3338,19
703,82	3287,81
704,01	3134,62
704,20	3230,88
704,38	3259,55
704,57	3129,71
704,75	3146,09
704,94	3124,79
705,13	3218,18
705,31	3215,31
705,50	3141,99
705,68	3194,83
705,87	3230,06
706,06	3232,92
706,24	3065,81
706,43	3002,73
706,61	3166,16
706,80	3039,60
706,99	3138,72
707,17	3218,18
707,36	3115,78
707,54	3051,47
707,73	3018,71
707,92	3058,03
708,10	2996,18
708,29	2941,29
708,47	3035,09
708,66	3078,92
708,84	2985,94
709,03	3027,31
709,22	2983,48
709,40	3031,40
709,59	3006,01
709,77	3079,33
709,96	3069,91
710,14	2915,90
710,33	3030,17
710,52	2965,87
710,70	3023,62
710,89	2854,87
711,07	2926,14
711,26	2927,37
711,44	3053,11
711,63	2924,91
711,81	2950,30
712,00	2824,56
712,19	2950,30
712,37	3005,19
712,56	2916,72
712,74	2887,64
712,93	2890,09
713,11	2845,86
713,30	2829,47
713,48	2919,17
713,67	2834,39
713,85	2774,59
714,04	2853,64
714,22	2899,10
714,41	2876,58
714,59	2825,38
714,78	2868,79
714,97	2857,74
715,15	2785,24
715,34	2883,54
715,52	2724,21
715,71	2800,80
715,89	2728,30
716,08	2722,57
716,26	2673,01
716,45	2713,56
716,63	2682,02
716,82	2741,41
717,00	2617,71
717,19	2770,90
717,37	2652,12
717,56	2682,43
717,74	2642,70
717,93	2711,51
718,11	2707,01
718,30	2518,59
718,48	2712,74
718,67	2790,97
718,85	2696,36
719,04	2623,45
719,22	2557,50
719,41	2703,32
719,59	2786,47
719,78	2584,95
719,96	2567,33
720,15	2648,84
720,33	2651,71
720,52	2631,23
720,70	2517,36
720,88	2684,89
721,07	2484,60
721,25	2507,12
721,44	2468,62
721,62	2613,21
721,81	2463,71
721,99	2396,94
722,18	2505,48
722,36	2530,06
722,55	2526,37
722,73	2521,46
722,92	2556,27
723,10	2471,08
723,28	2545,63
723,47	2542,35
723,65	2567,33
723,84	2510,81
724,02	2419,88
724,21	2527,60
724,39	2389,57
724,58	2428,07
724,76	2550,54
724,94	2370,32
725,13	2543,99
725,31	2451,83
725,50	2528,01
725,68	2466,57
725,87	2429,30
726,05	2507,53
726,23	2405,54
726,42	2379,74
726,60	2405,54
726,79	2392,03
726,97	2435,85
727,16	2508,76
727,34	2369,91
727,52	2346,97
727,71	2514,91
727,89	2301,10
728,08	2331,82
728,26	2384,65
728,44	2395,71
728,63	2558,32
728,81	2390,80
729,00	2361,31
729,18	2368,27
729,36	2368,27
729,55	2401,04
729,73	2386,29
729,92	2354,34
730,10	2265,46
730,28	2263,01
730,47	2327,72
730,65	2309,29
730,84	2511,63
731,02	2219,18
731,20	2439,13
731,39	2312,98
731,57	2362,54
731,75	2389,16
731,94	2241,71
732,12	2416,60
732,31	2262,19
732,49	2280,21
732,67	2294,54
732,86	2194,60
733,04	2242,53
733,22	2195,83
733,41	2164,29
733,59	2270,38
733,78	2282,26
733,96	2296,18
734,14	2094,66
734,33	2157,33
734,51	2297,41
734,69	2277,34
734,88	2201,98
735,06	2192,96
735,24	2190,51
735,43	2372,78
735,61	2120,47
735,79	2306,83
735,98	2232,70
736,16	2362,13
736,34	2216,72
736,53	2213,44
736,71	2245,39
736,89	2212,22
737,08	2287,17
737,26	2158,56
737,44	2117,60
737,63	2212,63
737,81	2117,60
737,99	2265,46
738,18	2250,72
738,36	2378,10
738,54	2210,58
738,73	2217,13
738,91	2297,41
739,09	2148,32
739,28	2101,63
739,46	2113,09
739,64	2114,32
739,82	2242,12
740,01	2120,06
740,19	2400,22
740,37	2231,06
740,56	2149,14
740,74	2095,48
740,92	2150,37
741,11	2027,08
741,29	2091,80
741,47	2282,67
741,65	2113,09
741,84	2127,43
742,02	2287,99
742,20	2076,64
742,39	2115,14
742,57	2080,33
742,75	2078,28
742,93	2069,27
743,12	2126,20
743,30	2058,62
743,48	2052,88
743,67	2120,88
743,85	2005,78
744,03	2239,25
744,21	2065,99
744,40	2070,09
744,58	2105,72
744,76	2077,05
744,94	2052,06
745,13	2010,29
745,31	2045,10
745,49	2009,47
745,67	2001,28
745,86	2100,81
746,04	2063,12
746,22	2086,88
746,40	1970,97
746,59	1988,17
746,77	2078,28
746,95	2153,23
747,13	2075,82
747,32	2084,83
747,50	2077,87
747,68	2050,84
747,86	2023,80
748,05	2120,06
748,23	2027,08
748,41	2078,69
748,59	1938,61
748,77	1957,86
748,96	1963,18
749,14	1916,49
749,32	2248,67
749,50	2071,73
749,69	2052,06
749,87	2086,06
750,05	2041,82
750,23	1880,85
750,41	1950,08
750,60	2050,84
750,78	1923,86
750,96	2042,64
751,14	2022,16
751,32	1972,60
751,51	1942,29
751,69	1911,57
751,87	1870,21
752,05	2031,99
752,23	2023,39
752,42	1928,37
752,60	2013,97
752,78	1995,95
752,96	1935,33
753,14	1964,41
753,33	1915,26
753,51	1940,25
753,69	1939,43
753,87	1964,41
754,05	1979,98
754,23	1987,76
754,42	1929,19
754,60	1934,10
754,78	2082,37
754,96	1860,78
755,14	1917,72
755,32	2043,46
755,51	1845,63
755,69	1964,82
755,87	1850,13
756,05	1850,13
756,23	1926,32
756,41	1981,61
756,60	1976,29
756,78	1980,80
756,96	1882,08
757,14	1947,21
757,32	1866,52
757,50	1967,69
757,68	1919,77
757,87	1865,70
758,05	1900,92
758,23	1928,78
758,41	2071,73
758,59	2021,75
758,77	2063,53
758,95	2024,62
759,14	1954,58
759,32	2052,47
759,50	1897,65
759,68	1889,87
759,86	1918,13
760,04	1904,61
760,22	1923,45
760,40	2208,53
760,59	1964,82
760,77	2039,78
760,95	1871,43
761,13	1875,94
761,31	1998,82
761,49	1940,66
761,67	2011,11
761,85	1880,04
762,03	1901,33
762,22	2011,51
762,40	1951,71
762,58	1866,11
762,76	1885,36
762,94	1950,49
763,12	1954,17
763,30	2010,29
763,48	1917,72
763,66	1825,56
763,84	1832,11
764,02	1883,72
764,21	1921,81
764,39	2114,73
764,57	1903,38
764,75	1862,01
764,93	1951,71
765,11	1868,57
765,29	1949,26
765,47	1916,90
765,65	1925,50
765,83	1898,47
766,01	1936,56
766,19	1927,96
766,37	2072,95
766,56	1949,26
766,74	1837,85
766,92	1890,28
767,10	1854,64
767,28	1884,13
767,46	1936,56
767,64	1833,34
767,82	1946,39
768,00	1865,70
768,18	1826,79
768,36	1995,95
768,54	2019,71
768,72	1964,00
768,90	1796,48
769,08	1771,49
769,26	1900,52
769,44	1882,08
769,62	1909,12
769,80	1959,09
769,98	1882,08
770,16	1807,13
770,34	1885,77
770,52	1811,22
770,71	1875,53
770,89	1814,91
771,07	2031,18
771,25	1873,89
771,43	1932,46
771,61	1930,42
771,79	1838,67
771,97	1830,47
772,15	1848,91
772,33	1873,07
772,51	1965,23
772,69	1776,82
772,87	1893,96
773,05	1853,41
773,23	1968,10
773,41	1927,96
773,59	1960,73
773,77	1861,19
773,95	1887,41
774,13	1892,32
774,31	1918,95
774,49	1909,94
774,67	1822,69
774,85	1798,12
775,03	1866,11
775,21	1918,95
775,39	1746,51
775,57	1789,52
775,75	1909,12
775,93	1769,85
776,10	1800,98
776,28	1892,73
776,46	1787,47
776,64	1795,25
776,82	1771,90
777,00	3185,41
777,18	1736,68
777,36	1908,71
777,54	1805,90
777,72	1740,36
777,90	1892,32
778,08	1719,47
778,26	1732,58
778,44	1737,09
778,62	1829,66
778,80	1965,23
778,98	1839,49
779,16	1753,88
779,34	1967,28
779,52	1750,19
779,70	1937,79
779,88	1721,52
780,05	1753,88
780,23	1790,74
780,41	1773,54
780,59	1793,61
780,77	1829,25
780,95	1792,38
781,13	1877,99
781,31	1763,71
781,49	1909,94
781,67	1824,74
781,85	1811,63
782,03	1807,13
782,21	1790,33
782,39	1794,43
782,56	1868,16
782,74	1875,94
782,92	1762,07
783,10	1970,97
783,28	1726,03
783,46	1698,99
783,64	1900,52
783,82	1798,94
784,00	1842,35
784,18	1755,11
784,35	1728,08
784,53	1737,91
784,71	1728,90
784,89	1787,06
785,07	1784,19
785,25	1804,26
785,43	1841,12
785,61	1672,37
785,79	1793,61
785,96	1866,93
786,14	1716,20
786,32	1853,00
786,50	1852,59
786,68	1634,69
786,86	1766,17
787,04	1783,78
787,22	1742,00
787,39	1722,75
787,57	1735,86
787,75	1755,93
787,93	1807,54
788,11	1663,77
788,29	1815,73
788,47	1790,74
788,65	1705,55
788,82	1791,97
789,00	1707,60
789,18	1880,04
789,36	1753,88
789,54	1692,85
789,72	1717,43
789,89	1717,43
790,07	1830,88
790,25	1837,44
790,43	1757,98
790,61	1830,88
790,79	1776,41
790,96	1727,67
791,14	1896,01
791,32	1679,33
791,50	1789,11
791,68	1881,67
791,86	1748,56
792,03	1776,41
792,21	1742,82
792,39	1707,60
792,57	1667,05
792,75	1644,11
792,93	1757,16
793,10	1714,56
793,28	1710,46
793,46	1653,12
793,64	1769,04
793,82	1907,48
793,99	1796,48
794,17	1660,49
794,35	1772,31
794,53	1771,49
794,71	1609,29
794,88	1664,18
795,06	1750,60
795,24	1678,11
795,42	1706,37
795,60	1825,56
795,77	1685,89
795,95	1735,45
796,13	1716,61
796,31	1710,46
796,49	1950,08
796,66	1713,74
796,84	1642,88
797,02	1796,07
797,20	1787,88
797,37	1789,52
797,55	1616,26
797,73	1664,59
797,91	1606,43
798,08	1796,89
798,26	1794,02
798,44	1648,21
798,62	1640,42
798,80	1711,28
798,97	1674,42
799,15	1724,39
799,33	1871,02
799,51	1848,91
799,68	1764,53
799,86	1775,59
800,04	1746,10
800,22	1705,14
800,39	1700,22
800,57	1848,91
800,75	1753,47
800,93	1790,74
801,10	1778,46
801,28	1858,74
801,46	1691,62
801,63	1712,10
801,81	1741,59
801,99	1671,55
802,17	1711,28
802,34	1859,97
802,52	1695,31
802,70	1820,23
802,88	1787,47
803,05	1783,78
803,23	1669,09
803,41	1689,98
803,58	1761,25
803,76	1778,87
803,94	1811,63
804,12	1764,53
804,29	1751,83
804,47	1810,40
804,65	1716,20
804,82	1736,27
805,00	1680,97
805,18	1703,50
805,35	1687,94
805,53	1763,71
805,71	1721,52
805,89	1738,73
806,06	1796,07
806,24	1659,26
806,42	1703,09
806,59	1671,96
806,77	1807,95
806,95	1705,96
807,12	1764,12
807,30	1791,97
807,48	1660,08
807,65	1619,53
807,83	1762,48
808,01	1750,19
808,18	1741,18
808,36	1738,32
808,54	1589,63
808,71	1703,09
808,89	1766,99
809,07	1752,24
809,24	1792,79
809,42	1812,86
809,60	1655,99
809,77	1742,41
809,95	1751,83
810,13	1690,39
810,30	1735,86
810,48	1887,41
810,66	1714,56
810,83	1766,99
811,01	1703,09
811,18	1741,59
811,36	1536,80
811,54	1723,16
811,71	1767,40
811,89	1785,42
812,07	1638,78
812,24	1906,25
812,42	1652,71
812,59	1733,81
812,77	1751,01
812,95	1749,37
813,12	1697,77
813,30	1656,81
813,48	1667,46
813,65	1731,35
813,83	1788,29
814,00	1806,31
814,18	1829,66
814,36	1712,51
814,53	1759,61
814,71	1711,69
814,88	1785,83
815,06	1643,29
815,24	1798,94
815,41	1611,75
815,59	1732,99
815,76	1642,47
815,94	1825,97
816,12	1706,37
816,29	1773,13
816,47	1741,18
816,64	1892,73
816,82	1648,21
817,00	1792,38
817,17	1725,62
817,35	1924,68
817,52	1699,81
817,70	1737,50
817,87	1785,01
818,05	1680,56
818,23	1665,00
818,40	1844,81
818,58	1719,88
818,75	1683,84
818,93	1676,88
819,10	1735,86
819,28	1695,31
819,46	1760,43
819,63	1661,72
819,81	1834,98
819,98	1626,91
820,16	1832,11
820,33	1608,07
820,51	1866,11
820,68	1724,80
820,86	1781,32
821,03	1835,80
821,21	1761,25
821,39	1928,37
821,56	1722,34
821,74	1633,05
821,91	1670,32
822,09	1671,14
822,26	1678,52
822,44	1619,94
822,61	1642,06
822,79	1798,53
822,96	1728,90
823,14	1629,77
823,31	1651,48
823,49	1790,33
823,66	1755,52
823,84	1695,31
824,01	1663,36
824,19	1601,51
824,36	1767,40
824,54	1726,85
824,71	1794,84
824,89	1730,94
825,06	1869,80
825,24	1678,92
825,41	1770,67
825,59	1737,09
825,76	1767,81
825,94	1666,64
826,11	1827,61
826,29	1670,32
826,46	1709,64
826,64	1825,97
826,81	1780,50
826,99	1708,83
827,16	1650,25
827,34	1660,49
827,51	1694,08
827,69	1888,64
827,86	1718,25
828,04	1756,34
828,21	1712,92
828,39	1783,78
828,56	1738,32
828,74	1802,21
828,91	1692,85
829,09	1975,06
829,26	1687,12
829,43	1776,41
829,61	1723,98
829,78	1659,26
829,96	1750,60
830,13	1617,08
830,31	1735,04
830,48	1735,86
830,66	1660,90
830,83	1668,68
831,01	1676,47
831,18	1701,04
831,35	1706,37
831,53	1755,11
831,70	1773,95
831,88	1942,29
832,05	1705,14
832,23	1666,23
832,40	1758,39
832,57	1764,94
832,75	1687,53
832,92	1776,00
833,10	1853,00
833,27	1741,59
833,45	1705,55
833,62	1676,06
833,79	1702,27
833,97	1653,12
834,14	1761,25
834,32	1745,28
834,49	1644,11
834,66	1661,72
834,84	1659,67
835,01	1781,32
835,19	1645,34
835,36	1662,95
835,53	1851,36
835,71	1720,70
835,88	1765,76
836,06	1773,95
836,23	1833,75
836,40	1603,56
836,58	1633,87
836,75	1707,60
836,93	1624,86
837,10	1728,08
837,27	1719,47
837,45	1700,22
837,62	1651,89
837,79	1649,02
837,97	1768,63
838,14	1682,20
838,32	1692,44
838,49	1672,37
838,66	1753,06
838,84	1737,91
839,01	1806,72
839,18	1764,53
839,36	1656,81
839,53	1626,09
839,70	1732,58
839,88	1653,53
840,05	1803,85
840,23	1744,05
840,40	1644,93
840,57	1694,90
840,75	1716,20
840,92	1813,68
841,09	1771,90
841,27	1781,32
841,44	1724,80
841,61	1773,54
841,79	1711,28
841,96	1694,49
842,13	1605,20
842,31	1735,45
842,48	1691,62
842,65	1626,09
842,83	1713,33
843,00	1728,49
843,17	1681,79
843,35	1776,41
843,52	1646,57
843,69	1723,57
843,86	1663,36
844,04	1655,17
844,21	1658,04
844,38	1749,37
844,56	1709,23
844,73	1745,28
844,90	1727,67
845,08	1691,21
845,25	1725,62
845,42	1722,75
845,60	1722,34
845,77	1678,11
845,94	1620,76
846,11	1692,85
846,29	1825,15
846,46	1675,65
846,63	1696,13
846,81	1752,65
846,98	1701,86
847,15	1701,04
847,32	1706,37
847,50	1650,66
847,67	1689,98
847,84	1730,12
848,01	1766,17
848,19	1733,81
848,36	1703,91
848,53	1620,35
848,71	1777,64
848,88	1650,66
849,05	1609,29
849,22	1676,06
849,40	1655,17
849,57	1792,38
849,74	1727,67
849,91	1703,50
850,09	1649,43
850,26	1641,24
850,43	1696,95
850,60	1640,42
850,78	1698,18
850,95	1740,77
851,12	1628,54
851,29	1755,52
851,47	1760,84
851,64	1683,43
851,81	1721,93
851,98	1739,95
852,15	1818,60
852,33	1593,32
852,50	1691,62
852,67	1727,67
852,84	1701,86
853,02	1773,95
853,19	1781,32
853,36	1685,89
853,53	1584,31
853,70	1876,76
853,88	1793,20
854,05	1782,14
854,22	1664,59
854,39	1793,61
854,56	1773,13
854,74	1627,73
854,91	1745,69
855,08	1545,81
855,25	1717,02
855,42	1620,76
855,60	1701,45
855,77	1777,64
855,94	1842,76
856,11	1699,40
856,28	1699,81
856,46	1833,34
856,63	1685,89
856,80	1649,43
856,97	1775,59
857,14	1767,81
857,31	1659,26
857,49	1688,35
857,66	1772,72
857,83	1654,76
858,00	1689,57
858,17	1670,32
858,34	1690,39
858,52	1629,36
858,69	1709,64
858,86	1732,58
859,03	1661,72
859,20	1765,76
859,37	1714,15
859,55	1642,47
859,72	1733,40
859,89	1684,66
860,06	1796,48
860,23	1777,64
860,40	1654,35
860,57	1792,38
860,75	1598,64
860,92	1777,64
861,09	1758,80
861,26	1803,85
861,43	1703,09
861,60	1690,39
861,77	1623,22
861,95	1634,69
862,12	1755,52
862,29	1646,98
862,46	1780,09
862,63	1800,57
862,80	1766,99
862,97	1832,11
863,14	1625,68
863,31	1789,11
863,49	1771,90
863,66	1758,39
863,83	1769,45
864,00	1809,18
864,17	1642,06
864,34	1751,01
864,51	1602,33
864,68	1738,32
864,85	1653,12
865,02	1705,96
865,20	1766,17
865,37	1670,32
865,54	1707,19
865,71	1741,59
865,88	1667,05
866,05	1660,90
866,22	1712,92
866,39	1685,07
866,56	1655,17
866,73	1661,72
866,90	1837,85
867,07	1747,74
867,25	1658,85
867,42	1802,62
867,59	1686,71
867,76	1779,68
867,93	1677,29
868,10	1775,18
868,27	1645,34
868,44	1743,64
868,61	1686,30
868,78	1737,91
868,95	1622,81
869,12	1783,78
869,29	1745,28
869,46	1756,75
869,63	1755,93
869,80	1601,92
869,97	1806,72
870,14	1714,15
870,32	1737,91
870,49	1677,70
870,66	1799,35
870,83	1725,21
871,00	1680,97
871,17	1683,02
871,34	1704,32
871,51	1690,80
871,68	1621,17
871,85	1724,80
872,02	1837,03
872,19	1697,77
872,36	1658,04
872,53	1757,98
872,70	1743,23
872,87	1646,98
873,04	1609,29
873,21	1635,10
873,38	1658,45
873,55	1780,09
873,72	1746,92
873,89	1655,99
874,06	1645,34
874,23	1596,19
874,40	1635,92
874,57	1686,71
874,74	1870,61
874,91	1626,50
875,08	1681,38
875,25	1728,49
875,42	1784,60
875,59	1777,64
875,76	1719,88
875,93	1705,55
876,10	1823,51
876,27	1616,26
876,44	1896,01
876,61	1726,03
876,78	1710,87
876,95	1740,36
877,12	1646,98
877,29	1734,22
877,46	1678,11
877,62	1714,56
877,79	1602,74
877,96	1738,73
878,13	1654,76
878,30	1711,69
878,47	1767,81
878,64	1743,23
878,81	1708,01
878,98	1668,28
879,15	1820,64
879,32	1812,04
879,49	1783,78
879,66	1789,11
879,83	1653,53
880,00	1838,67
880,17	1663,77
880,34	1776,00
880,51	1678,11
880,67	1791,15
880,84	1556,46
881,01	1695,72
881,18	1824,33
881,35	1666,64
881,52	1851,77
881,69	1670,73
881,86	1872,66
882,03	1696,95
882,20	1759,61
882,37	1703,09
882,54	1793,61
882,70	1726,44
882,87	1644,52
883,04	1768,22
883,21	1766,99
883,38	1630,18
883,55	1724,80
883,72	1667,05
883,89	1633,05
884,06	1645,75
884,23	1612,16
884,39	1583,49
884,56	1779,28
884,73	1751,42
884,90	1702,68
885,07	1792,79
885,24	1677,70
885,41	1878,81
885,58	1668,28
885,74	1633,05
885,91	1782,96
886,08	1755,93
886,25	1660,90
886,42	1663,77
886,59	1763,71
886,76	1627,32
886,93	1595,37
887,09	1809,99
887,26	1948,03
887,43	1688,35
887,60	1704,32
887,77	1739,95
887,94	1742,41
888,10	1939,84
888,27	1833,34
888,44	1781,32
888,61	1565,06
888,78	1640,01
888,95	1789,52
889,12	1647,80
889,28	1761,25
889,45	1628,95
889,62	1695,72
889,79	1686,30
889,96	1746,51
890,13	1692,44
890,29	1701,04
890,46	1895,60
890,63	1771,08
890,80	1726,44
890,97	1684,66
891,13	1614,21
891,30	1778,46
891,47	1871,43
891,64	1635,10
891,81	1636,74
891,98	1661,31
892,14	1750,19
892,31	1651,48
892,48	1662,13
892,65	1691,62
892,82	1685,89
892,98	1619,53
893,15	1724,80
893,32	1730,53
>>>>>End Processed Spectral Data<<<<<
