SpectraSuite Datei
++++++++++++++++++++++++++++++++++++
Datum: Mon Mar 09 11:57:56 CET 2020
Benutzer: Lichtquellen1
Dark-Spektrum vorhanden: Nein
Referenz-Spektrum vorhanden: Nein
Zahl der probierten Teilspektren: 1
Spektrometer: USB4F05832
Integrationszeit (usec): 200000 (USB4F05832)
Spektren Durchschnitt berechnet: 5 (USB4F05832)
Boxcar Glättung: 0 (USB4F05832)
Dunkelstromkorrektur: Nein (USB4F05832)
Puls/Lampe aktiviert: Nein (USB4F05832)
Correct for Detector Non-linearity: Nein (USB4F05832)
Streulichtkorrektur: Nein (USB4F05832)
Anzahl Pixel in verarbeitetem Spektrum: 3648
>>>>>Begin Processed Spectral Data<<<<<
177,54	1366,00
177,75	1366,00
177,97	1366,00
178,19	1361,08
178,41	1409,82
178,63	1737,09
178,85	1532,29
179,07	1637,15
179,29	1659,67
179,51	1556,46
179,73	1702,27
179,95	1651,48
180,17	1629,36
180,39	1766,99
180,61	1694,08
180,83	1788,70
181,05	1602,74
181,27	1681,38
181,49	1632,23
181,71	1685,07
181,92	1893,14
182,14	1695,31
182,36	1640,01
182,58	1755,52
182,80	1655,58
183,02	1880,85
183,24	1815,32
183,46	1714,56
183,68	1620,35
183,90	1725,62
184,12	1581,44
184,34	1763,30
184,56	1667,05
184,78	1606,84
185,00	1737,91
185,21	1843,99
185,43	1635,92
185,65	1721,52
185,87	1639,60
186,09	1864,47
186,31	1689,16
186,53	1723,16
186,75	1730,53
186,97	1779,28
187,19	1816,55
187,41	1629,77
187,63	1857,51
187,84	1600,28
188,06	1767,40
188,28	1668,28
188,50	1742,82
188,72	1816,96
188,94	1786,24
189,16	1609,29
189,38	1689,57
189,60	1765,35
189,82	1679,33
190,03	1730,53
190,25	1653,53
190,47	1714,56
190,69	1698,18
190,91	1597,42
191,13	1698,59
191,35	1839,90
191,57	1680,56
191,79	1730,53
192,01	1692,44
192,22	1854,64
192,44	1675,65
192,66	1729,30
192,88	1737,91
193,10	1707,60
193,32	1668,28
193,54	1868,98
193,76	1855,46
193,98	1682,61
194,19	1790,74
194,41	1682,61
194,63	1627,32
194,85	1705,96
195,07	1800,98
195,29	1575,71
195,51	1755,93
195,73	1637,56
195,94	1663,77
196,16	1684,25
196,38	1893,55
196,60	1662,13
196,82	1617,08
197,04	1699,40
197,26	1643,70
197,48	1669,09
197,69	1710,05
197,91	1651,07
198,13	1639,60
198,35	1703,50
198,57	1664,59
198,79	1780,91
199,01	1776,00
199,22	1688,35
199,44	1791,15
199,66	1684,25
199,88	1698,99
200,10	1790,74
200,32	1716,61
200,54	1770,67
200,75	1817,78
200,97	1652,71
201,19	1794,43
201,41	1803,44
201,63	1643,29
201,85	1644,93
202,06	1818,19
202,28	1682,61
202,50	1732,58
202,72	1558,91
202,94	1582,67
203,16	1667,05
203,38	1688,76
203,59	1658,04
203,81	1812,04
204,03	1583,90
204,25	1658,45
204,47	1842,35
204,69	1723,57
204,90	1652,71
205,12	1723,98
205,34	1730,94
205,56	1718,66
205,78	1629,77
206,00	1868,98
206,21	1771,49
206,43	1712,92
206,65	1727,26
206,87	1664,59
207,09	1763,71
207,30	1619,53
207,52	1810,81
207,74	1760,84
207,96	1646,57
208,18	1674,83
208,40	1686,71
208,61	1717,43
208,83	1698,18
209,05	1600,28
209,27	1589,63
209,49	1757,98
209,70	1790,33
209,92	1732,17
210,14	1656,81
210,36	1660,49
210,58	1708,83
210,79	1778,87
211,01	1606,84
211,23	1754,29
211,45	1803,44
211,67	1760,84
211,88	1613,80
212,10	1803,85
212,32	1646,57
212,54	1692,44
212,76	1662,54
212,97	1631,00
213,19	1578,16
213,41	1779,68
213,63	1645,75
213,85	1671,96
214,06	1595,37
214,28	1841,12
214,50	1667,87
214,72	1756,75
214,94	1773,54
215,15	1662,13
215,37	1665,41
215,59	1640,01
215,81	1757,98
216,02	1728,49
216,24	1757,98
216,46	1624,04
216,68	1710,05
216,90	1696,13
217,11	1790,74
217,33	1615,85
217,55	1810,40
217,77	1720,70
217,98	1814,09
218,20	1725,62
218,42	1779,28
218,64	1727,26
218,85	1829,66
219,07	1721,11
219,29	1731,35
219,51	1754,70
219,73	1726,44
219,94	1689,57
220,16	1866,93
220,38	1753,88
220,60	1684,25
220,81	1597,83
221,03	1570,79
221,25	1746,51
221,47	1571,61
221,68	1714,56
221,90	1761,25
222,12	1696,13
222,34	1739,54
222,55	1743,23
222,77	1849,32
222,99	1689,98
223,21	1779,68
223,42	1807,95
223,64	1779,68
223,86	1664,59
224,08	1710,46
224,29	1812,04
224,51	1727,26
224,73	1721,11
224,94	1736,68
225,16	1655,99
225,38	1660,49
225,60	1742,82
225,81	1670,32
226,03	1702,68
226,25	1591,68
226,47	1696,54
226,68	1764,94
226,90	1736,68
227,12	1727,26
227,33	1746,92
227,55	1651,07
227,77	1606,84
227,99	1855,46
228,20	1647,39
228,42	1712,92
228,64	1750,19
228,86	1702,27
229,07	1688,35
229,29	1625,27
229,51	1555,64
229,72	1848,50
229,94	1746,51
230,16	1749,37
230,38	1653,94
230,59	1620,76
230,81	1875,12
231,03	1788,29
231,24	1656,40
231,46	1692,44
231,68	1665,41
231,89	1715,38
232,11	1627,32
232,33	1807,13
232,55	1728,49
232,76	1755,11
232,98	1672,37
233,20	1660,49
233,41	1602,74
233,63	1642,88
233,85	1685,89
234,06	1714,56
234,28	1776,41
234,50	1639,19
234,71	1737,91
234,93	1836,62
235,15	1737,50
235,37	1559,73
235,58	1744,05
235,80	1631,00
236,02	1622,81
236,23	1763,30
236,45	1698,59
236,67	1726,85
236,88	1687,94
237,10	1782,55
237,32	1789,52
237,53	1744,87
237,75	1700,22
237,97	1576,94
238,18	1664,59
238,40	1712,51
238,62	1674,83
238,83	1704,32
239,05	1656,81
239,27	1693,26
239,48	1583,90
239,70	1667,46
239,92	1816,96
240,13	1823,92
240,35	1663,77
240,57	1709,64
240,78	1731,35
241,00	1577,76
241,22	1661,72
241,43	1905,43
241,65	1689,57
241,87	1816,14
242,08	1961,54
242,30	1649,43
242,52	1667,05
242,73	1771,90
242,95	1641,65
243,16	1730,94
243,38	1816,55
243,60	1748,56
243,81	1735,04
244,03	1803,85
244,25	1617,90
244,46	1705,96
244,68	1649,43
244,90	1747,33
245,11	1629,77
245,33	1678,92
245,55	1716,61
245,76	1714,56
245,98	1633,05
246,19	1846,04
246,41	1811,63
246,63	1785,83
246,84	1822,28
247,06	1749,37
247,28	1709,23
247,49	1697,36
247,71	1627,73
247,92	1766,58
248,14	1838,26
248,36	1747,74
248,57	1801,39
248,79	1831,70
249,01	1671,96
249,22	1722,34
249,44	1768,63
249,65	1700,22
249,87	1736,68
250,09	1738,73
250,30	1771,08
250,52	1735,86
250,73	1760,43
250,95	1616,67
251,17	1737,50
251,38	1685,07
251,60	1631,00
251,81	1829,66
252,03	1860,37
252,25	1630,59
252,46	1653,53
252,68	1811,22
252,89	1732,58
253,11	1719,47
253,33	1736,27
253,54	1606,84
253,76	1742,41
253,97	1792,79
254,19	1740,77
254,41	1599,87
254,62	1853,41
254,84	1772,72
255,05	1719,88
255,27	1773,13
255,49	1820,23
255,70	1825,56
255,92	1683,43
256,13	1667,46
256,35	1782,55
256,56	1828,84
256,78	1789,52
257,00	1759,61
257,21	1697,77
257,43	1639,60
257,64	1730,53
257,86	1820,23
258,08	1730,12
258,29	1811,22
258,51	1656,81
258,72	1754,70
258,94	1810,81
259,15	1766,58
259,37	1716,20
259,59	1575,30
259,80	1773,95
260,02	1694,49
260,23	1704,32
260,45	1608,88
260,66	1749,78
260,88	1762,89
261,09	1706,37
261,31	1658,45
261,53	1840,30
261,74	1811,63
261,96	1579,80
262,17	1639,19
262,39	1748,97
262,60	1710,05
262,82	1745,69
263,03	1722,75
263,25	1747,33
263,46	1660,90
263,68	1766,99
263,90	1736,27
264,11	1682,61
264,33	1864,88
264,54	1799,35
264,76	1733,81
264,97	1813,27
265,19	1657,22
265,40	1802,62
265,62	1674,42
265,83	1764,94
266,05	1746,92
266,26	1665,00
266,48	1880,85
266,70	1824,74
266,91	1635,10
267,13	1739,54
267,34	1670,73
267,56	1746,10
267,77	1689,16
267,99	1685,48
268,20	1859,97
268,42	1699,81
268,63	1581,85
268,85	1949,67
269,06	1832,11
269,28	1787,88
269,49	1732,58
269,71	1767,40
269,92	1695,31
270,14	1671,14
270,35	1704,32
270,57	1729,30
270,78	1723,57
271,00	1703,91
271,21	1898,88
271,43	1640,42
271,64	1701,45
271,86	1800,57
272,07	1625,68
272,29	1867,34
272,50	1694,49
272,72	1832,52
272,93	1779,68
273,15	1869,80
273,36	1786,24
273,58	1737,09
273,79	1712,51
274,01	1708,01
274,22	1630,59
274,44	1717,43
274,65	1772,72
274,87	1793,61
275,08	1795,66
275,30	1759,21
275,51	1892,32
275,73	1894,78
275,94	1671,14
276,16	1681,79
276,37	1714,97
276,59	1740,77
276,80	1732,99
277,02	1758,39
277,23	1695,31
277,45	1750,60
277,66	1579,39
277,88	1780,50
278,09	1857,51
278,30	1778,05
278,52	1641,65
278,73	1925,09
278,95	1755,93
279,16	1880,85
279,38	1774,36
279,59	1708,42
279,81	1694,90
280,02	1692,44
280,24	1651,07
280,45	1729,30
280,67	1859,15
280,88	1813,27
281,09	1645,34
281,31	1654,35
281,52	1712,51
281,74	1896,01
281,95	1718,66
282,17	1722,34
282,38	1779,68
282,60	1707,19
282,81	1804,26
283,02	1695,72
283,24	1685,48
283,45	1845,22
283,67	1632,23
283,88	1787,47
284,10	1705,55
284,31	1779,28
284,53	1691,21
284,74	1726,03
284,95	1776,41
285,17	1721,52
285,38	1667,05
285,60	1679,74
285,81	1693,67
286,03	1770,67
286,24	1798,12
286,45	1836,21
286,67	1733,40
286,88	1730,53
287,10	1832,93
287,31	1607,25
287,53	1755,93
287,74	1792,79
287,95	1621,58
288,17	1772,72
288,38	1795,66
288,60	1692,85
288,81	1657,63
289,02	1686,71
289,24	1825,97
289,45	1703,09
289,67	1780,91
289,88	1746,10
290,10	1782,55
290,31	1762,89
290,52	1705,14
290,74	1738,32
290,95	1798,53
291,17	1795,66
291,38	1685,89
291,59	1683,02
291,81	1681,79
292,02	1742,00
292,24	1760,84
292,45	1763,30
292,66	1741,18
292,88	1803,44
293,09	1748,15
293,31	1720,29
293,52	1710,05
293,73	1636,74
293,95	1761,66
294,16	1742,00
294,37	1748,56
294,59	1782,96
294,80	1896,83
295,02	1715,79
295,23	1592,91
295,44	1791,97
295,66	1657,22
295,87	1804,67
296,09	1675,24
296,30	1774,36
296,51	1656,40
296,73	1705,14
296,94	1662,95
297,15	1661,72
297,37	1651,07
297,58	1662,13
297,79	1755,93
298,01	1746,92
298,22	1826,79
298,44	1663,36
298,65	1711,28
298,86	1803,03
299,08	1645,75
299,29	1726,85
299,50	1701,04
299,72	1682,61
299,93	1779,28
300,14	1744,05
300,36	1631,41
300,57	1642,47
300,79	1746,10
301,00	1795,66
301,21	1587,99
301,43	1703,09
301,64	1673,60
301,85	1688,76
302,07	1796,89
302,28	1659,26
302,49	1842,35
302,71	1726,44
302,92	1808,36
303,13	1815,73
303,35	1703,09
303,56	1777,23
303,77	1590,45
303,99	1747,74
304,20	1764,12
304,41	1637,97
304,63	1682,20
304,84	1807,54
305,05	1800,57
305,27	1791,97
305,48	1798,94
305,69	1711,28
305,91	1807,54
306,12	1741,18
306,33	1764,12
306,55	1730,53
306,76	1702,27
306,97	1713,33
307,19	1742,82
307,40	1787,47
307,61	1805,49
307,82	1708,01
308,04	1798,12
308,25	1800,16
308,46	1717,02
308,68	1757,57
308,89	1798,53
309,10	1711,28
309,32	1711,28
309,53	1657,22
309,74	1773,95
309,96	1721,93
310,17	1683,84
310,38	1657,63
310,59	1759,21
310,81	1701,86
311,02	1727,26
311,23	1782,55
311,45	1725,21
311,66	1740,77
311,87	1690,39
312,09	1827,20
312,30	1735,86
312,51	1787,88
312,72	1772,72
312,94	1812,45
313,15	1757,16
313,36	1790,33
313,58	1643,29
313,79	1874,71
314,00	1697,77
314,21	1659,67
314,43	1756,34
314,64	1736,68
314,85	1642,88
315,06	1652,71
315,28	1833,34
315,49	1753,06
315,70	1755,52
315,92	1840,30
316,13	1905,02
316,34	1809,18
316,55	1753,88
316,77	1653,12
316,98	1839,49
317,19	1694,49
317,40	1580,62
317,62	1614,62
317,83	1841,94
318,04	1692,44
318,25	1702,27
318,47	1719,88
318,68	1761,66
318,89	1782,96
319,11	1718,25
319,32	1732,17
319,53	1829,66
319,74	1778,05
319,96	1783,37
320,17	1703,09
320,38	1662,95
320,59	1838,26
320,81	1777,23
321,02	1710,05
321,23	1735,86
321,44	1787,06
321,65	1733,40
321,87	1739,54
322,08	1873,07
322,29	1744,05
322,50	1650,66
322,72	1720,70
322,93	1733,81
323,14	1640,01
323,35	1715,38
323,57	1809,18
323,78	1748,15
323,99	1749,78
324,20	1830,47
324,41	1649,02
324,63	1739,14
324,84	1727,67
325,05	1753,47
325,26	1786,65
325,48	1747,74
325,69	1771,49
325,90	1771,49
326,11	1742,00
326,32	1721,93
326,54	1807,95
326,75	1747,74
326,96	1731,35
327,17	1759,61
327,39	1790,33
327,60	1749,78
327,81	1715,38
328,02	1710,46
328,23	1748,56
328,45	1773,13
328,66	1689,57
328,87	1775,59
329,08	1824,74
329,29	1760,84
329,51	1711,69
329,72	1689,98
329,93	1741,18
330,14	1694,08
330,35	1758,80
330,56	1692,85
330,78	1790,74
330,99	1750,19
331,20	1778,05
331,41	1811,63
331,62	1651,07
331,84	1695,72
332,05	1675,65
332,26	1794,43
332,47	1747,33
332,68	1687,53
332,90	1694,08
333,11	1607,25
333,32	1903,79
333,53	1750,19
333,74	1580,21
333,95	1784,60
334,17	1748,97
334,38	1743,23
334,59	1676,47
334,80	1724,80
335,01	1838,67
335,22	1736,68
335,44	1746,10
335,65	1700,63
335,86	1803,03
336,07	1740,36
336,28	1683,02
336,49	1682,20
336,71	1599,87
336,92	1848,09
337,13	1725,21
337,34	1667,87
337,55	1903,38
337,76	1708,83
337,97	1803,85
338,19	1741,59
338,40	1675,65
338,61	1798,12
338,82	1747,33
339,03	1759,21
339,24	1633,46
339,45	1648,21
339,67	1759,21
339,88	1733,81
340,09	1746,92
340,30	1700,22
340,51	1893,14
340,72	1732,58
340,93	1597,42
341,15	1743,64
341,36	1852,18
341,57	1689,16
341,78	1653,94
341,99	1762,48
342,20	1835,80
342,41	1687,94
342,62	1900,92
342,84	1601,10
343,05	1853,82
343,26	1662,54
343,47	1819,42
343,68	1593,32
343,89	1712,51
344,10	1717,02
344,31	1735,04
344,53	1618,30
344,74	1702,27
344,95	1679,74
345,16	1737,91
345,37	1773,54
345,58	1744,46
345,79	1637,56
346,00	1610,52
346,21	1658,04
346,42	1705,55
346,64	1713,33
346,85	1841,53
347,06	1750,60
347,27	1645,75
347,48	1836,21
347,69	1761,66
347,90	1696,95
348,11	1809,59
348,32	1636,74
348,53	1748,56
348,75	1626,91
348,96	1693,26
349,17	1618,71
349,38	1691,21
349,59	1697,36
349,80	1586,77
350,01	1869,39
350,22	1829,66
350,43	1690,80
350,64	1763,71
350,85	1840,71
351,06	1640,42
351,28	1659,26
351,49	1667,46
351,70	1730,12
351,91	1634,28
352,12	1680,15
352,33	1739,95
352,54	1640,83
352,75	1656,40
352,96	1678,92
353,17	1770,26
353,38	1776,82
353,59	1793,61
353,80	1862,83
354,01	1787,47
354,22	1698,99
354,44	1672,37
354,65	1859,56
354,86	1671,55
355,07	1649,02
355,28	1595,37
355,49	1695,31
355,70	1660,90
355,91	1803,85
356,12	1618,30
356,33	1627,73
356,54	1744,87
356,75	1752,24
356,96	1733,81
357,17	1794,02
357,38	1696,54
357,59	1729,30
357,80	1816,96
358,01	1733,40
358,22	1781,32
358,43	1759,61
358,64	1730,12
358,85	1623,63
359,07	1849,32
359,28	1679,33
359,49	1702,68
359,70	1615,03
359,91	1727,67
360,12	1646,16
360,33	1819,42
360,54	1635,92
360,75	1626,91
360,96	1692,44
361,17	1574,89
361,38	1634,69
361,59	1876,35
361,80	1595,37
362,01	1744,05
362,22	1723,57
362,43	1630,59
362,64	1716,61
362,85	1738,73
363,06	1915,26
363,27	1751,83
363,48	1805,90
363,69	1890,28
363,90	1640,83
364,11	1743,64
364,32	1679,33
364,53	1761,25
364,74	1749,37
364,95	1763,30
365,16	1728,90
365,37	1844,81
365,58	1684,66
365,79	1667,46
366,00	1776,41
366,21	1663,36
366,42	1803,44
366,63	1833,34
366,84	1694,08
367,05	1680,56
367,26	1754,70
367,47	1814,50
367,68	1724,80
367,89	1714,15
368,10	1760,84
368,31	1634,69
368,52	1782,55
368,73	1708,01
368,94	1650,25
369,15	1744,05
369,36	1644,11
369,57	1691,62
369,78	1680,15
369,99	1710,46
370,20	1752,24
370,40	1612,16
370,61	1617,90
370,82	1704,32
371,03	1684,66
371,24	1739,14
371,45	1646,16
371,66	1568,74
371,87	1739,95
372,08	1745,69
372,29	1716,61
372,50	1780,91
372,71	1717,84
372,92	1786,24
373,13	1653,53
373,34	1640,83
373,55	1659,26
373,76	1786,24
373,97	1730,53
374,18	1703,91
374,39	1696,54
374,60	1861,19
374,81	1703,91
375,01	1636,74
375,22	1725,62
375,43	1664,18
375,64	1620,35
375,85	1627,32
376,06	1684,66
376,27	1729,71
376,48	1718,25
376,69	1787,88
376,90	1744,05
377,11	1770,67
377,32	1731,76
377,53	1731,35
377,74	1718,25
377,94	1655,99
378,15	1756,75
378,36	1813,68
378,57	1568,33
378,78	1901,33
378,99	1623,63
379,20	1925,09
379,41	1752,65
379,62	1679,33
379,83	1634,28
380,04	1739,54
380,25	1705,96
380,45	1729,30
380,66	1808,36
380,87	1666,64
381,08	1758,80
381,29	1658,85
381,50	1746,10
381,71	1726,03
381,92	1679,74
382,13	1606,02
382,34	1684,25
382,55	1706,37
382,75	1738,73
382,96	1798,94
383,17	1630,59
383,38	1818,60
383,59	1855,87
383,80	1603,97
384,01	1674,01
384,22	1821,46
384,43	1812,04
384,63	1741,59
384,84	1684,66
385,05	1777,64
385,26	1722,75
385,47	1764,12
385,68	1711,69
385,89	1826,38
386,10	1674,01
386,30	1770,26
386,51	1603,97
386,72	1665,41
386,93	1595,78
387,14	1753,06
387,35	1775,18
387,56	1838,26
387,77	1595,37
387,97	1654,76
388,18	1669,09
388,39	1704,32
388,60	1676,47
388,81	1746,10
389,02	1744,87
389,23	1690,80
389,43	1704,73
389,64	1739,14
389,85	1694,49
390,06	1809,18
390,27	1647,39
390,48	1785,01
390,69	1691,62
390,89	1680,15
391,10	1676,06
391,31	1628,54
391,52	1682,61
391,73	1747,33
391,94	1689,16
392,14	1637,56
392,35	1633,05
392,56	1635,51
392,77	1708,01
392,98	1709,64
393,19	1784,19
393,39	1844,40
393,60	1729,30
393,81	1790,74
394,02	1813,27
394,23	1604,79
394,44	1637,97
394,64	1699,40
394,85	1741,18
395,06	1756,34
395,27	1698,59
395,48	1784,60
395,69	1776,82
395,89	1694,49
396,10	1696,13
396,31	1867,34
396,52	1586,77
396,73	1718,25
396,93	1653,94
397,14	1794,84
397,35	1780,50
397,56	1785,83
397,77	1653,94
397,97	1694,90
398,18	1737,09
398,39	1755,93
398,60	1732,99
398,81	1627,32
399,01	1623,22
399,22	1717,84
399,43	1841,53
399,64	1813,68
399,85	1787,47
400,05	1625,68
400,26	1544,17
400,47	1704,32
400,68	1637,56
400,89	1919,77
401,09	1627,32
401,30	1726,03
401,51	1770,67
401,72	1701,86
401,93	1866,52
402,13	1690,39
402,34	1834,98
402,55	1748,15
402,76	1701,04
402,96	1705,14
403,17	1754,29
403,38	1828,02
403,59	1770,67
403,80	1773,95
404,00	1762,89
404,21	1752,65
404,42	1682,61
404,63	1651,48
404,83	1674,83
405,04	1760,02
405,25	1800,98
405,46	1878,81
405,66	1713,33
405,87	1746,51
406,08	1743,23
406,29	1834,16
406,49	1683,43
406,70	1852,18
406,91	1583,49
407,12	1721,11
407,32	1853,82
407,53	1791,15
407,74	1801,39
407,95	1881,26
408,15	1715,79
408,36	1667,05
408,57	1755,52
408,78	1759,61
408,98	1797,71
409,19	1813,27
409,40	1728,49
409,61	1768,63
409,81	1792,79
410,02	1732,58
410,23	1748,15
410,44	1787,88
410,64	1660,49
410,85	1779,28
411,06	1757,57
411,26	1851,77
411,47	1792,38
411,68	1929,19
411,89	1815,32
412,09	1774,36
412,30	1842,76
412,51	1795,66
412,72	1806,72
412,92	1840,30
413,13	1812,86
413,34	1784,19
413,54	1815,73
413,75	1871,84
413,96	1859,56
414,17	1816,14
414,37	1921,40
414,58	1974,65
414,79	1955,81
414,99	1964,41
415,20	1938,20
415,41	1816,55
415,61	1886,18
415,82	1973,42
416,03	1949,26
416,24	1893,96
416,44	1973,42
416,65	1991,04
416,86	2037,73
417,06	1916,49
417,27	1963,18
417,48	2033,22
417,68	1967,28
417,89	2034,45
418,10	1998,00
418,30	2120,47
418,51	2137,26
418,72	2067,63
418,92	2050,43
419,13	2167,16
419,34	2075,82
419,55	2179,45
419,75	3004,78
419,96	2165,93
420,17	2373,60
420,37	2198,70
420,58	2259,73
420,79	2142,99
420,99	2253,58
421,20	2355,16
421,41	2297,41
421,61	2319,12
421,82	2244,98
422,03	2379,33
422,23	2301,51
422,44	2376,46
422,65	2496,47
422,85	2335,91
423,06	2453,47
423,26	2501,39
423,47	2489,51
423,68	2601,33
423,88	2574,71
424,09	2535,39
424,30	2648,02
424,50	2514,50
424,71	2635,74
424,92	2732,81
425,12	2890,50
425,33	2816,37
425,54	2734,04
425,74	2893,37
425,95	2937,61
426,15	2777,46
426,36	2798,34
426,57	2898,29
426,77	2978,16
426,98	2864,70
427,19	2968,33
427,39	2878,22
427,60	3079,33
427,81	3119,06
428,01	3095,71
428,22	3216,13
428,42	3134,21
428,63	3152,23
428,84	3179,27
429,04	3214,49
429,25	3296,41
429,45	3217,36
429,66	3588,45
429,87	3433,21
430,07	3699,86
430,28	3532,34
430,49	3646,20
430,69	3623,27
430,90	3613,03
431,10	3553,64
431,31	3823,15
431,52	3820,28
431,72	3748,19
431,93	3847,72
432,13	3951,35
432,34	4012,79
432,55	3768,26
432,75	3991,90
432,96	4062,76
433,16	4072,59
433,37	4160,24
433,58	4217,18
433,78	4272,06
433,99	4060,71
434,19	4215,95
434,40	4338,42
434,60	4280,66
434,81	4437,13
435,02	4334,73
435,22	4471,53
435,43	4535,02
435,63	4561,65
435,84	4542,39
436,05	4860,24
436,25	4540,76
436,46	4883,59
436,66	4749,24
436,87	4868,43
437,07	4711,56
437,28	4908,57
437,48	4970,83
437,69	4787,33
437,90	5081,42
438,10	4979,02
438,31	5164,57
438,51	5194,88
438,72	5227,65
438,92	5167,84
439,13	5297,28
439,34	5293,18
439,54	5456,20
439,75	5223,55
439,95	5397,63
440,16	5389,84
440,36	5780,60
440,57	5550,00
440,77	5801,08
440,98	5600,38
441,18	5579,08
441,39	5625,77
441,60	5987,03
441,80	5869,07
442,01	5819,51
442,21	5980,89
442,42	5883,00
442,62	5962,05
442,83	5799,03
443,03	5907,16
443,24	5989,08
443,44	6096,39
443,65	5950,17
443,85	6050,11
444,06	6191,83
444,26	6171,76
444,47	6016,11
444,67	6232,38
444,88	6245,49
445,09	6305,70
445,29	6352,80
445,50	6788,20
445,70	6380,24
445,91	6447,01
446,11	6310,20
446,32	6750,92
446,52	6663,27
446,73	6674,74
446,93	6734,13
447,14	6760,34
447,34	6786,15
447,55	6622,72
447,75	6850,46
447,96	7065,49
448,16	7087,20
448,37	7185,09
448,57	7090,48
448,78	7239,16
448,98	7127,75
449,19	7301,01
449,39	7176,90
449,60	7387,84
449,80	7431,26
450,01	7495,16
450,21	7467,71
450,42	7774,91
450,62	7701,59
450,83	7887,55
451,03	7953,90
451,23	7802,35
451,44	8046,88
451,64	8094,39
451,85	8112,41
452,05	8295,09
452,26	8070,64
452,46	8233,65
452,67	8223,41
452,87	8307,38
453,08	8283,21
453,28	8223,41
453,49	8817,73
453,69	8712,06
453,90	8758,75
454,10	9120,01
454,31	9011,06
454,51	9009,01
454,71	8979,52
454,92	8777,59
455,12	8628,09
455,33	9094,21
455,53	9348,98
455,74	9366,18
455,94	9903,57
456,15	9573,43
456,35	10225,92
456,55	9829,02
456,76	9868,75
456,96	10304,56
457,17	9489,88
457,37	10656,40
457,58	10027,67
457,78	10246,40
457,99	10411,05
458,19	9765,53
458,39	10613,39
458,60	10378,70
458,80	10481,09
459,01	9928,96
459,21	10051,02
459,42	10138,67
459,62	9895,38
459,82	10664,18
460,03	10280,39
460,23	10633,05
460,44	10181,27
460,64	9818,78
460,85	10466,35
461,05	9751,20
461,25	9533,29
461,46	10304,56
461,66	9883,09
461,87	9636,51
462,07	9673,38
462,27	9582,45
462,48	9330,96
462,68	9567,70
462,89	9215,04
463,09	10066,59
463,29	9349,80
463,50	9438,27
463,70	9381,74
463,91	9160,97
464,11	8680,11
464,31	8903,75
464,52	8870,57
464,72	9045,06
464,93	8569,11
465,13	8846,82
465,33	8540,44
465,54	7891,23
465,74	8207,03
465,95	8110,37
466,15	8460,16
466,35	8206,21
466,56	8074,73
466,76	8114,87
466,96	7667,19
467,17	7715,93
467,37	7689,71
467,58	7588,95
467,78	7516,05
467,98	7609,02
468,19	7098,67
468,39	7280,94
468,59	7305,92
468,80	7334,19
469,00	6945,48
469,21	6877,08
469,41	6830,39
469,61	6978,66
469,82	6675,15
470,02	6955,31
470,22	7035,18
470,43	6929,10
470,63	6467,49
470,83	6737,00
471,04	6485,51
471,24	6583,40
471,45	6500,66
471,65	6487,15
471,85	6249,58
472,06	6279,89
472,26	6316,35
472,46	6240,57
472,67	6400,72
472,87	6220,50
473,07	6185,68
473,28	5988,67
473,48	6126,29
473,68	6264,33
473,89	6061,58
474,09	6082,47
474,29	5901,84
474,50	6035,77
474,70	5934,19
474,90	6210,67
475,11	5924,36
475,31	5996,45
475,51	5909,62
475,72	5922,32
475,92	5830,98
476,12	5703,59
476,33	6141,86
476,53	5962,87
476,73	5842,45
476,93	5887,09
477,14	5713,83
477,34	5747,42
477,54	5712,19
477,75	5748,65
477,95	5673,69
478,15	5755,61
478,36	5765,03
478,56	5723,25
478,76	5763,80
478,97	5839,58
479,17	5616,76
479,37	5724,48
479,57	5623,31
479,78	5560,24
479,98	5466,44
480,18	5607,75
480,39	5578,26
480,59	5604,47
480,79	5618,81
480,99	5579,49
481,20	5482,00
481,40	5684,34
481,60	5490,19
481,81	5638,88
482,01	5559,01
482,21	5477,09
482,41	5452,51
482,62	5423,84
482,82	5378,38
483,02	5525,42
483,23	5128,93
483,43	5458,66
483,63	5276,80
483,83	5405,41
484,04	5579,49
484,24	5338,64
484,44	5334,55
484,64	5275,57
484,85	5259,59
485,05	5265,74
485,25	5353,39
485,45	5209,21
485,66	5383,70
485,86	5149,82
486,06	5316,53
486,26	5306,70
486,47	5280,07
486,67	5248,12
486,87	5349,29
487,07	5416,47
487,28	5225,60
487,48	5232,56
487,68	5207,17
487,88	5250,17
488,09	5280,48
488,29	5307,93
488,49	5363,22
488,69	5285,40
488,90	5249,76
489,10	5214,54
489,30	5231,33
489,50	5255,50
489,71	5348,07
489,91	5273,52
490,11	5335,37
490,31	5351,34
490,52	5289,49
490,72	5269,01
490,92	5420,56
491,12	5356,67
491,32	5273,52
491,53	5360,76
491,73	5341,10
491,93	5200,61
492,13	5373,05
492,33	5291,13
492,54	5316,94
492,74	5509,04
492,94	5276,39
493,14	5384,93
493,35	5371,41
493,55	5426,71
493,75	5466,85
493,95	5514,36
494,15	5392,71
494,36	5461,11
494,56	5472,99
494,76	5359,94
494,96	5441,04
495,16	5416,88
495,37	5584,40
495,57	5357,49
495,77	5531,56
495,97	5482,82
496,17	5511,08
496,37	5690,90
496,58	5633,14
496,78	5552,45
496,98	5454,97
497,18	5747,83
497,38	5693,76
497,59	5865,38
497,79	5589,32
497,99	5794,93
498,19	5697,45
498,39	5919,45
498,59	5656,49
498,80	5784,69
499,00	5738,41
499,20	5711,78
499,40	5700,73
499,60	5758,48
499,80	5855,96
500,01	5874,80
500,21	5949,35
500,41	5993,18
500,61	6198,38
500,81	6125,06
501,01	6106,22
501,22	6082,47
501,42	5928,87
501,62	6015,29
501,82	6198,79
502,02	6061,58
502,22	6058,30
502,42	6202,48
502,63	6323,72
502,83	6246,30
503,03	6311,84
503,23	6416,29
503,43	6485,92
503,63	6697,27
503,83	6605,52
504,04	6405,64
504,24	6471,99
504,44	6405,64
504,64	6596,51
504,84	6713,24
505,04	6626,00
505,24	6632,14
505,44	6775,91
505,65	6920,09
505,85	7064,26
506,05	6970,88
506,25	6975,79
506,45	7059,35
506,65	7034,36
506,85	7054,43
507,05	7395,22
507,26	7293,23
507,46	7466,89
507,66	7392,35
507,86	7511,95
508,06	7741,32
508,26	7711,42
508,46	7903,52
508,66	7825,70
508,86	8012,88
509,06	7987,49
509,27	8154,19
509,47	8204,16
509,67	8227,10
509,87	8397,49
510,07	8578,12
510,27	8623,59
510,47	8850,50
510,67	8862,79
510,87	8984,85
511,07	8912,76
511,28	9128,62
511,48	9203,57
511,68	9262,55
511,88	9222,82
512,08	9480,87
512,28	9719,66
512,48	9948,62
512,68	10001,87
512,88	10145,64
513,08	10336,51
513,28	10469,63
513,48	10533,93
513,68	10533,52
513,89	10710,88
514,09	10788,29
514,29	10916,90
514,49	11122,93
514,69	11145,46
514,89	11424,80
515,09	11542,76
515,29	11930,24
515,49	11847,91
515,69	12298,46
515,89	12547,09
516,09	12633,10
516,29	12452,47
516,49	12785,47
516,69	13169,26
516,89	13359,72
517,09	13449,83
517,29	13914,72
517,50	13864,75
517,70	13846,73
517,90	14058,90
518,10	14121,97
518,30	14451,29
518,50	14510,68
518,70	14662,64
518,90	14982,94
519,10	15337,65
519,30	15528,52
519,50	15910,26
519,70	16330,50
519,90	16484,10
520,10	16802,35
520,30	17004,69
520,50	16957,18
520,70	17209,08
520,90	17647,35
521,10	17679,70
521,30	17864,43
521,50	18319,49
521,70	18518,55
521,90	18792,98
522,10	19115,74
522,30	19052,25
522,50	19792,80
522,70	19915,68
522,90	20311,75
523,10	20166,76
523,30	20477,23
523,50	20429,31
523,70	20650,90
523,90	20563,24
524,10	20966,28
524,30	21129,30
524,50	21566,75
524,70	22229,06
524,90	22576,81
525,10	22825,02
525,30	22775,05
525,50	23366,91
525,70	23500,44
525,90	23672,06
526,10	23877,27
526,30	24361,41
526,50	24723,08
526,70	24684,58
526,90	25039,29
527,10	24918,86
527,30	25433,72
527,50	25746,24
527,70	26330,32
527,90	26342,61
528,10	26923,83
528,30	26997,55
528,50	27470,63
528,70	27860,98
528,90	28684,26
529,10	29096,31
529,30	29149,97
529,50	29537,44
529,70	29226,15
529,90	29833,99
530,10	30182,14
530,29	29915,91
530,49	29908,54
530,69	29682,03
530,89	29982,26
531,09	30244,40
531,29	31138,14
531,49	31548,14
531,69	32020,40
531,89	31373,65
532,09	31528,89
532,29	31531,76
532,49	31764,81
532,69	32232,57
532,89	32507,41
533,09	32901,03
533,29	32971,07
533,49	32821,16
533,68	32998,51
533,88	33724,31
534,08	34338,70
534,28	34200,26
534,48	34568,89
534,68	34312,49
534,88	34647,13
535,08	35245,95
535,28	35430,68
535,48	35385,62
535,68	35511,37
535,88	35581,41
536,08	36004,11
536,27	36585,73
536,47	37104,28
536,67	38084,85
536,87	38224,52
537,07	38110,24
537,27	38736,92
537,47	38744,70
537,67	38525,16
537,87	39045,75
538,07	39550,37
538,27	39325,10
538,46	39550,37
538,66	39537,68
538,86	39780,56
539,06	40322,87
539,26	40247,50
539,46	39908,77
539,66	40245,04
539,86	40045,57
540,06	40789,39
540,25	40395,77
540,45	41087,17
540,65	41482,43
540,85	41662,24
541,05	41862,12
541,25	42376,98
541,45	42408,93
541,65	42626,01
541,85	43312,49
542,04	43095,41
542,24	43528,76
542,44	43627,47
542,64	43677,44
542,84	43803,18
543,04	43663,92
543,24	43889,20
543,43	44248,00
543,63	44730,91
543,83	44369,65
544,03	44481,88
544,23	44686,27
544,43	45040,98
544,63	45143,38
544,82	45719,26
545,02	44443,38
545,22	44901,71
545,42	44226,70
545,62	45071,29
545,82	44583,87
546,02	44717,81
546,21	45023,77
546,41	45559,52
546,61	45082,35
546,81	45604,58
547,01	45831,49
547,21	45914,23
547,40	45634,07
547,60	46008,03
547,80	45852,38
548,00	46060,05
548,20	45951,91
548,40	45585,74
548,59	45872,45
548,79	45641,03
548,99	46166,95
549,19	46804,28
549,39	47990,05
549,59	48768,69
549,78	48740,84
549,98	49184,02
550,18	49450,66
550,38	49402,74
550,58	48685,95
550,77	48834,22
550,97	48663,42
551,17	48101,87
551,37	48846,51
551,57	48642,94
551,76	48352,13
551,96	48282,50
552,16	48238,27
552,36	49025,91
552,56	49225,39
552,75	49702,15
552,95	49582,14
553,15	50191,21
553,35	50114,20
553,55	49114,39
553,74	49324,10
553,94	48356,64
554,14	48058,86
554,34	48128,08
554,54	48103,51
554,73	48237,45
554,93	48319,77
555,13	48764,59
555,33	48851,84
555,53	49827,08
555,72	50039,25
555,92	50806,01
556,12	50023,68
556,32	49331,47
556,51	49869,27
556,71	50405,02
556,91	49874,18
557,11	50282,14
557,30	50232,17
557,50	50029,83
557,70	49438,38
557,90	49492,85
558,10	49477,70
558,29	50101,10
558,49	50443,11
558,69	49972,08
558,89	49148,79
559,08	49666,52
559,28	49854,93
559,48	50300,98
559,68	50740,06
559,87	50693,37
560,07	49931,94
560,27	50110,93
560,47	49315,91
560,66	49338,02
560,86	49217,19
561,06	49664,88
561,25	50405,43
561,45	49998,70
561,65	49843,87
561,85	49362,19
562,04	49691,50
562,24	49974,12
562,44	50402,15
562,64	49824,21
562,83	50400,10
563,03	50423,86
563,23	51098,46
563,42	51326,60
563,62	51408,11
563,82	50531,17
564,02	50562,30
564,21	49952,82
564,41	49871,32
564,61	49914,73
564,80	50137,55
565,00	50324,74
565,20	50695,42
565,40	50874,41
565,59	50888,75
565,79	51133,27
565,99	51052,17
566,18	50790,85
566,38	50938,31
566,58	51028,01
566,78	50250,19
566,97	50260,43
567,17	50122,40
567,37	50206,36
567,56	50128,54
567,76	50453,76
567,96	50526,67
568,15	51053,40
568,35	50830,17
568,55	50744,16
568,74	50324,74
568,94	50822,39
569,14	50896,94
569,33	50849,43
569,53	50268,62
569,73	50751,94
569,92	51202,50
570,12	51069,79
570,32	50850,24
570,52	50270,26
570,71	50103,97
570,91	49555,52
571,11	50278,45
571,30	50049,08
571,50	50554,11
571,70	51317,59
571,89	50497,99
572,09	51182,02
572,28	50458,67
572,48	50991,15
572,68	50923,56
572,87	52090,49
573,07	52710,62
573,27	52536,54
573,46	52042,98
573,66	52067,56
573,86	51494,54
574,05	51500,27
574,25	50989,10
574,45	51145,97
574,64	51137,78
574,84	51390,50
575,04	51263,12
575,23	50672,48
575,43	50622,51
575,62	50420,17
575,82	50044,98
576,02	49236,86
576,21	49293,38
576,41	49221,70
576,61	49019,77
576,80	48656,87
577,00	49249,14
577,19	49201,22
577,39	50801,91
577,59	50619,23
577,78	50702,38
577,98	50553,70
578,18	50532,40
578,37	51016,13
578,57	51397,05
578,76	50760,54
578,96	50142,88
579,16	50341,12
579,35	50628,65
579,55	49944,22
579,74	49532,99
579,94	49325,33
580,14	49760,32
580,33	49773,83
580,53	50003,20
580,72	49803,32
580,92	49655,46
581,12	49706,25
581,31	50238,31
581,51	50262,07
581,70	49548,97
581,90	49417,08
582,10	49602,62
582,29	50122,81
582,49	50129,77
582,68	50957,15
582,88	51515,83
583,07	51158,26
583,27	50501,27
583,47	50631,11
583,66	50099,05
583,86	49209,41
584,05	48479,52
584,25	48801,87
584,44	48671,21
584,64	48589,70
584,84	48292,74
585,03	48077,70
585,23	47648,86
585,42	47803,28
585,62	47491,17
585,81	47675,48
586,01	47740,20
586,20	47888,88
586,40	47989,23
586,60	47756,17
586,79	48509,42
586,99	49134,46
587,18	49125,45
587,38	49076,70
587,57	48739,20
587,77	49218,83
587,96	49200,81
588,16	49329,83
588,35	49785,71
588,55	50525,44
588,75	50374,30
588,94	49596,48
589,14	49329,42
589,33	48357,87
589,53	48194,44
589,72	47556,70
589,92	48014,63
590,11	48572,90
590,31	48856,75
590,50	49417,08
590,70	48937,03
590,89	48990,69
591,09	48383,67
591,28	47915,92
591,48	47629,61
591,67	47564,07
591,87	47320,37
592,06	47042,66
592,26	46470,87
592,45	46491,35
592,65	46530,26
592,84	46802,23
593,04	47002,93
593,23	46875,96
593,43	46919,78
593,62	46607,67
593,82	46144,01
594,01	46138,69
594,21	46953,78
594,40	47067,65
594,60	46546,23
594,79	46868,17
594,99	46223,06
595,18	46649,04
595,38	46034,65
595,57	45792,17
595,77	45932,66
595,96	44958,24
596,16	45253,15
596,35	45022,14
596,55	44962,74
596,74	45225,70
596,94	45433,37
597,13	45439,10
597,33	45466,14
597,52	45565,26
597,72	45242,50
597,91	45158,12
598,11	44302,07
598,30	44320,50
598,50	44363,51
598,69	44274,22
598,88	43989,96
599,08	44396,69
599,27	45020,09
599,47	45070,88
599,66	45468,59
599,86	45563,21
600,05	44758,77
600,25	44614,59
600,44	43415,30
600,64	42988,09
600,83	42789,44
601,02	42941,40
601,22	42742,75
601,41	42773,88
601,61	43056,90
601,80	43514,42
602,00	43203,13
602,19	42825,48
602,38	42262,29
602,58	42091,90
602,77	42156,62
602,97	42500,27
603,16	42477,33
603,36	42075,93
603,55	42782,89
603,74	42426,95
603,94	42800,50
604,13	43141,28
604,33	43137,59
604,52	43111,38
604,72	43240,40
604,91	43058,13
605,10	43262,93
605,30	42717,35
605,49	43119,57
605,69	43258,42
605,88	42637,48
606,07	43159,71
606,27	42438,42
606,46	41828,94
606,66	41948,13
606,85	41645,85
607,04	41737,19
607,24	41677,39
607,43	41790,03
607,63	42063,64
607,82	41947,72
608,01	42141,05
608,21	41552,47
608,40	41723,27
608,60	40782,02
608,79	41160,90
608,98	41137,14
609,18	41470,14
609,37	40745,16
609,57	40206,13
609,76	40031,24
609,95	39525,39
610,15	39451,66
610,34	39169,86
610,53	38747,98
610,73	38648,86
610,92	38755,35
611,11	39034,69
611,31	39021,18
611,50	39636,80
611,70	39916,55
611,89	40123,39
612,08	40397,00
612,28	40245,04
612,47	40273,31
612,66	39722,81
612,86	39079,75
613,05	38542,77
613,24	37976,71
613,44	37740,38
613,63	37656,82
613,82	37782,98
614,02	37626,51
614,21	37691,64
614,41	37685,08
614,60	38127,44
614,79	37239,03
614,99	37744,88
615,18	37710,89
615,37	37117,80
615,57	37460,63
615,76	36718,85
615,95	36065,55
616,15	36344,48
616,34	36505,86
616,53	36568,94
616,73	36760,63
616,92	37165,72
617,11	37225,11
617,30	37128,04
617,50	37028,09
617,69	37220,19
617,88	36964,20
618,08	36872,04
618,27	37173,91
618,46	37349,22
618,66	37504,04
618,85	37777,65
619,04	38020,13
619,24	38045,53
619,43	37649,45
619,62	37253,37
619,82	36933,48
620,01	36965,84
620,20	36864,67
620,39	36817,15
620,59	37084,21
620,78	37119,84
620,97	36569,76
621,17	35956,19
621,36	35961,92
621,55	35888,19
621,74	35935,30
621,94	36055,31
622,13	36387,08
622,32	36143,78
622,52	36424,35
622,71	36580,41
622,90	36810,19
623,09	36836,40
623,29	36722,95
623,48	37218,96
623,67	37165,31
623,86	37681,40
624,06	37771,51
624,25	37887,83
624,44	38598,48
624,64	37961,97
624,83	37718,26
625,02	37177,19
625,21	37844,82
625,41	37997,60
625,60	38030,37
625,79	37875,95
625,98	38231,48
626,18	38346,17
626,37	37519,61
626,56	37190,70
626,75	37674,43
626,95	36922,01
627,14	36710,66
627,33	36276,08
627,52	35707,97
627,72	35748,52
627,91	35859,11
628,10	35945,54
628,29	35483,11
628,49	35303,70
628,68	35585,50
628,87	35799,31
629,06	36492,35
629,25	36071,28
629,45	35699,78
629,64	35864,85
629,83	35646,53
630,02	34878,55
630,22	34479,60
630,41	34249,00
630,60	33781,65
630,79	33514,60
630,98	33367,55
631,18	33456,85
631,37	33877,91
631,56	34686,86
631,75	35266,84
631,94	34802,36
632,14	34828,99
632,33	34675,39
632,52	34290,37
632,71	35139,05
632,90	34784,75
633,10	34409,15
633,29	34419,80
633,48	34140,46
633,67	33986,45
633,86	34153,57
634,06	33907,40
634,25	33466,27
634,44	33175,86
634,63	33204,13
634,82	33470,36
635,02	33559,24
635,21	33271,30
635,40	32885,05
635,59	32485,70
635,78	32258,37
635,97	31847,96
636,17	31415,43
636,36	31857,38
636,55	31763,18
636,74	31989,68
636,93	31394,54
637,12	31719,76
637,32	31988,45
637,51	31267,16
637,70	31879,91
637,89	31782,02
638,08	31710,34
638,27	31424,03
638,47	31159,03
638,66	31261,01
638,85	30950,54
639,04	31230,29
639,23	31335,97
639,42	31257,33
639,62	31991,32
639,81	31963,47
640,00	32302,20
640,19	32090,03
640,38	31951,18
640,57	32110,10
640,76	31581,32
640,95	31351,12
641,15	30604,84
641,34	30404,96
641,53	30107,60
641,72	29874,95
641,91	30179,69
642,10	29859,38
642,29	29998,24
642,49	30037,97
642,68	29691,04
642,87	29453,89
643,06	29099,59
643,25	28617,09
643,44	28372,15
643,63	28486,43
643,82	28789,53
644,01	29196,25
644,21	29738,55
644,40	29406,78
644,59	29320,36
644,78	28803,45
644,97	28565,07
645,16	28626,10
645,35	28429,08
645,54	28276,30
645,73	27893,33
645,92	27835,17
646,12	27627,92
646,31	27545,59
646,50	27749,16
646,69	27998,19
646,88	27599,25
647,07	27200,71
647,26	26549,87
647,45	26404,87
647,64	26138,63
647,83	26440,91
648,02	26427,81
648,22	26346,71
648,41	25686,85
648,60	25684,40
648,79	25655,31
648,98	25994,46
649,17	25748,70
649,36	25616,81
649,55	25505,40
649,74	25583,64
649,93	25551,28
650,12	25600,02
650,31	25726,99
650,50	25476,32
650,69	25926,06
650,88	25785,97
651,08	25196,16
651,27	25589,37
651,46	25737,23
651,65	25430,45
651,84	25282,17
652,03	25304,29
652,22	25402,59
652,41	24809,91
652,60	24857,43
652,79	24541,63
652,98	24285,22
653,17	24326,59
653,36	24361,82
653,55	24197,16
653,74	24243,44
653,93	24004,65
654,12	24052,98
654,31	24075,10
654,50	24061,99
654,69	23960,42
654,88	23762,17
655,07	23311,21
655,26	22922,10
655,45	22992,14
655,64	23087,98
655,83	23160,07
656,02	23032,28
656,21	22865,57
656,40	22620,22
656,59	22568,21
656,78	22425,26
656,97	22677,57
657,17	22627,19
657,36	22181,14
657,55	22268,38
657,74	21971,43
657,93	21701,92
658,12	21601,56
658,31	21936,61
658,50	21954,22
658,69	21850,19
658,87	22338,01
659,06	22150,42
659,25	21947,26
659,44	21611,80
659,63	21832,99
659,82	21493,02
660,01	20991,27
660,20	21035,92
660,39	21194,02
660,58	21136,27
660,77	21245,63
660,96	21480,33
661,15	21183,78
661,34	21070,32
661,53	20856,51
661,72	20830,71
661,91	20516,96
662,10	20442,00
662,29	20161,43
662,48	20011,11
662,67	20269,98
662,86	20293,73
663,05	20279,40
663,24	20717,66
663,43	20291,27
663,62	20304,38
663,81	20232,29
664,00	20255,23
664,19	19828,02
664,38	19835,40
664,57	19393,04
664,76	19278,35
664,94	19112,05
665,13	18944,53
665,32	19003,10
665,51	19219,37
665,70	18854,83
665,89	19129,26
666,08	18771,68
666,27	18944,94
666,46	18968,29
666,65	19017,85
666,84	18865,07
667,03	18654,13
667,22	18575,08
667,41	18725,81
667,60	18541,90
667,78	18084,79
667,97	18083,15
668,16	17818,15
668,35	17530,61
668,54	17491,70
668,73	17572,39
668,92	17683,80
669,11	17968,88
669,30	17791,52
669,49	17686,26
669,68	17613,76
669,86	17283,22
670,05	17184,10
670,24	16748,70
670,43	16736,82
670,62	16878,13
670,81	16969,47
671,00	16924,41
671,19	17182,46
671,38	16990,77
671,57	16889,19
671,75	16896,97
671,94	16690,13
672,13	16477,55
672,32	16699,14
672,51	16530,38
672,70	16791,71
672,89	16575,44
673,08	16400,13
673,26	16404,64
673,45	16416,52
673,64	16817,51
673,83	16585,68
674,02	16746,24
674,21	16986,67
674,40	16765,90
674,59	16892,06
674,77	16818,33
674,96	16978,07
675,15	17049,34
675,34	16843,72
675,53	16612,71
675,72	16228,10
675,91	16217,05
676,09	16269,88
676,28	16330,09
676,47	15943,85
676,66	15823,02
676,85	16147,00
677,04	15886,50
677,22	15761,17
677,41	15902,48
677,60	15759,12
677,79	15478,55
677,98	15259,42
678,17	15055,03
678,36	15214,36
678,54	14956,73
678,73	14726,94
678,92	14392,71
679,11	14340,70
679,30	14173,58
679,48	14312,84
679,67	14149,01
679,86	14355,85
680,05	14382,07
680,24	14251,00
680,43	14292,77
680,61	14153,10
680,80	14004,01
680,99	13894,24
681,18	13853,28
681,37	13873,35
681,55	13698,04
681,74	13197,11
681,93	13085,70
682,12	12782,19
682,31	12864,93
682,49	12900,97
682,68	13026,31
682,87	12765,40
683,06	13107,00
683,25	13244,21
683,43	13593,60
683,62	13295,41
683,81	13414,20
684,00	13356,85
684,19	12860,42
684,37	12806,77
684,56	12547,90
684,75	12521,69
684,94	12508,17
685,12	12675,29
685,31	12742,05
685,50	12847,32
685,69	12702,32
685,88	12513,50
686,06	12373,01
686,25	12241,53
686,44	12211,22
686,63	12228,01
686,81	12292,32
687,00	12144,86
687,19	12154,28
687,38	12206,71
687,56	12291,50
687,75	12416,02
687,94	12351,30
688,13	12242,35
688,31	12207,53
688,50	11999,05
688,69	11991,68
688,88	11987,99
689,06	11727,90
689,25	11710,29
689,44	11542,35
689,63	11573,07
689,81	11237,20
690,00	11116,78
690,19	11088,52
690,38	11126,20
690,56	11084,84
690,75	11353,12
690,94	11220,82
691,13	11329,77
691,31	11222,87
691,50	11073,37
691,69	11126,20
691,87	11090,57
692,06	11266,70
692,25	11371,96
692,44	11178,22
692,62	11205,26
692,81	11276,94
693,00	10960,32
693,18	10846,86
693,37	10889,05
693,56	10374,60
693,75	10461,84
693,93	10583,90
694,12	10494,61
694,31	10338,56
694,49	10180,04
694,68	10238,21
694,87	10355,76
695,05	10302,51
695,24	10192,74
695,43	10036,28
695,62	9963,37
695,80	9960,09
695,99	9882,68
696,18	9690,17
696,36	10019,48
696,55	9875,71
696,74	9686,07
696,92	10081,74
697,11	9960,09
697,30	10001,46
697,48	9817,96
697,67	9782,74
697,86	9700,00
698,04	9452,19
698,23	9520,19
698,42	9658,22
698,60	9351,84
698,79	9491,52
698,98	9345,70
699,16	9334,23
699,35	9138,86
699,54	9282,21
699,72	9226,92
699,91	9676,65
700,10	9455,06
700,28	9370,69
700,47	9562,79
700,66	9360,45
700,84	9314,57
701,03	9193,74
701,21	9860,56
701,40	9172,44
701,59	9146,64
701,77	9029,49
701,96	8891,05
702,15	8847,22
702,33	8827,56
702,52	8717,79
702,71	8881,22
702,89	8730,08
703,08	8798,89
703,26	8784,97
703,45	8881,22
703,64	8822,65
703,82	8853,37
704,01	8733,36
704,20	8705,10
704,38	8619,08
704,57	8340,15
704,75	8278,71
704,94	8246,35
705,13	8291,41
705,31	8363,09
705,50	8198,84
705,68	8193,10
705,87	8114,46
706,06	8204,98
706,24	8104,22
706,43	8040,33
706,61	8146,41
706,80	8037,87
706,99	8239,39
707,17	8329,09
707,36	8260,28
707,54	8053,02
707,73	7952,26
707,92	7975,61
708,10	7712,24
708,29	7850,68
708,47	7835,12
708,66	7909,66
708,84	7851,09
709,03	7837,58
709,22	7772,86
709,40	7715,11
709,59	7636,06
709,77	7771,63
709,96	7730,26
710,14	7564,38
710,33	7645,89
710,52	7592,23
710,70	7580,76
710,89	7228,92
711,07	7286,67
711,26	7282,58
711,44	7314,12
711,63	7226,87
711,81	7287,90
712,00	7303,88
712,19	7379,65
712,37	7405,05
712,56	7244,48
712,74	7216,22
712,93	7221,14
713,11	7148,64
713,30	7163,79
713,48	7194,92
713,67	7122,02
713,85	7019,62
714,04	6995,04
714,22	7022,89
714,41	6931,96
714,59	6820,15
714,78	6830,39
714,97	6818,51
715,15	6718,57
715,34	6755,84
715,52	6524,01
715,71	6616,99
715,89	6556,78
716,08	6650,16
716,26	6636,65
716,45	6707,51
716,63	6686,62
716,82	6703,41
717,00	6508,44
717,19	6611,25
717,37	6448,23
717,56	6510,08
717,74	6324,13
717,93	6393,76
718,11	6363,86
718,30	6254,91
718,48	6349,11
718,67	6512,54
718,85	6331,91
719,04	6203,71
719,22	6040,69
719,41	6336,82
719,59	6382,29
719,78	6280,71
719,96	6143,09
720,15	6262,28
720,33	6280,71
720,52	6210,26
720,70	6113,19
720,88	6288,49
721,07	5972,70
721,25	6001,37
721,44	5988,26
721,62	6067,31
721,81	5912,49
721,99	5693,76
722,18	5824,42
722,36	5818,69
722,55	5756,43
722,73	5753,15
722,92	5950,17
723,10	5902,66
723,28	5799,85
723,47	5861,70
723,65	5777,73
723,84	5637,24
724,02	5470,94
724,21	5533,20
724,39	5291,95
724,58	5349,70
724,76	5447,60
724,94	5278,03
725,13	5402,54
725,31	5343,56
725,50	5355,44
725,68	5316,53
725,87	5278,84
726,05	5321,85
726,23	5235,02
726,42	5130,16
726,60	5212,90
726,79	5025,72
726,97	5166,21
727,16	5168,66
727,34	5013,84
727,52	4992,54
727,71	5117,05
727,89	4950,76
728,08	5037,59
728,26	5166,21
728,44	5131,39
728,63	5297,28
728,81	5139,58
729,00	5184,64
729,18	5152,28
729,36	5095,76
729,55	5069,13
729,73	5076,91
729,92	4931,51
730,10	4843,86
730,28	4829,11
730,47	4743,10
730,65	4782,83
730,84	4924,96
731,02	4625,54
731,20	4871,71
731,39	4802,49
731,57	4792,25
731,75	4786,51
731,94	4693,94
732,12	4814,36
732,31	4652,58
732,49	4634,55
732,67	4618,17
732,86	4531,75
733,04	4635,78
733,22	4532,15
733,41	4496,52
733,59	4517,82
733,78	4506,35
733,96	4503,89
734,14	4392,48
734,33	4409,69
734,51	4575,57
734,69	4580,08
734,88	4447,37
735,06	4486,69
735,24	4471,53
735,43	4566,97
735,61	4360,54
735,79	4374,87
735,98	4285,17
736,16	4439,59
736,34	4237,66
736,53	4299,92
736,71	4319,58
736,89	4308,52
737,08	4369,55
737,26	4256,91
737,44	4213,90
737,63	4165,57
737,81	4108,63
737,99	4273,70
738,18	4232,33
738,36	4281,07
738,54	4162,29
738,73	4172,94
738,91	4249,13
739,09	4130,34
739,28	4022,62
739,46	4060,30
739,64	4118,06
739,82	4204,07
740,01	4068,90
740,19	4329,41
740,37	4096,76
740,56	4052,11
740,74	4024,26
740,92	3974,29
741,11	3877,62
741,29	3992,72
741,47	4077,10
741,65	3836,66
741,84	3882,95
742,02	4057,03
742,20	3875,99
742,39	3848,13
742,57	3806,76
742,75	3770,31
742,93	3795,30
743,12	3760,07
743,30	3747,37
743,48	3796,52
743,67	3850,59
743,85	3772,77
744,03	3968,96
744,21	3698,63
744,40	3659,72
744,58	3699,45
744,76	3613,85
744,94	3661,77
745,13	3590,09
745,31	3586,81
745,49	3644,57
745,67	3533,16
745,86	3678,56
746,04	3529,06
746,22	3594,19
746,40	3521,28
746,59	3456,56
746,77	3588,04
746,95	3724,44
747,13	3602,79
747,32	3593,78
747,50	3561,42
747,68	3512,27
747,86	3566,33
748,05	3596,64
748,23	3559,37
748,41	3529,06
748,59	3505,71
748,77	3430,76
748,96	3450,42
749,14	3393,07
749,32	3654,40
749,50	3452,88
749,69	3433,62
749,87	3399,22
750,05	3309,52
750,23	3226,37
750,41	3295,18
750,60	3396,76
750,78	3311,16
750,96	3379,97
751,14	3400,04
751,32	3319,76
751,51	3317,71
751,69	3246,85
751,87	3173,12
752,05	3313,61
752,23	3301,33
752,42	3232,92
752,60	3272,65
752,78	3264,05
752,96	3170,67
753,14	3267,74
753,33	3180,50
753,51	3181,31
753,69	3234,15
753,87	3258,32
754,05	3316,89
754,23	3240,71
754,42	3203,43
754,60	3216,13
754,78	3307,06
754,96	3073,18
755,14	3135,85
755,32	3160,02
755,51	3059,67
755,69	3179,27
755,87	3144,86
756,05	3060,07
756,23	3152,23
756,41	3135,03
756,60	3152,23
756,78	3118,24
756,96	3037,14
757,14	3123,97
757,32	2962,18
757,50	3112,91
757,68	3080,96
757,87	3030,99
758,05	3130,53
758,23	3129,71
758,41	3346,38
758,59	3282,89
758,77	3250,13
758,95	3144,45
759,14	3092,84
759,32	3185,82
759,50	3020,75
759,68	3021,16
759,86	3053,11
760,04	3074,41
760,22	3030,17
760,40	3325,90
760,59	3052,70
760,77	3119,06
760,95	2986,35
761,13	2982,25
761,31	3085,88
761,49	3069,09
761,67	3128,48
761,85	2951,94
762,03	2971,19
762,22	3137,90
762,40	3062,53
762,58	2969,55
762,76	3030,58
762,94	2997,41
763,12	3051,47
763,30	3105,95
763,48	3021,98
763,66	2934,33
763,84	2870,02
764,02	2972,01
764,21	2908,12
764,39	3205,48
764,57	2943,34
764,75	2897,88
764,93	3000,27
765,11	2946,62
765,29	2926,55
765,47	2898,29
765,65	2908,12
765,83	2880,26
766,01	2860,19
766,19	2952,35
766,37	3084,24
766,56	2977,75
766,74	2857,33
766,92	2831,93
767,10	2815,55
767,28	2862,65
767,46	2815,55
767,64	2762,71
767,82	2895,01
768,00	2752,06
768,18	2768,03
768,36	2892,14
768,54	3019,12
768,72	2953,99
768,90	2730,76
769,08	2729,53
769,26	2812,27
769,44	2756,16
769,62	2811,86
769,80	2857,74
769,98	2843,40
770,16	2699,22
770,34	2752,88
770,52	2669,73
770,71	2771,31
770,89	2729,12
771,07	2907,71
771,25	2692,26
771,43	2756,16
771,61	2688,16
771,79	2645,16
771,97	2658,26
772,15	2642,29
772,33	2620,58
772,51	2757,79
772,69	2550,54
772,87	2670,55
773,05	2654,58
773,23	2732,40
773,41	2620,17
773,59	2682,84
773,77	2612,39
773,95	2668,91
774,13	2612,80
774,31	2710,69
774,49	2648,84
774,67	2587,81
774,85	2617,71
775,03	2608,70
775,21	2603,38
775,39	2516,13
775,57	2509,17
775,75	2612,39
775,93	2482,96
776,10	2431,76
776,28	2540,71
776,46	2424,39
776,64	2438,31
776,82	2388,75
777,00	4346,20
777,18	2358,03
777,36	2533,34
777,54	2496,88
777,72	2376,87
777,90	2521,05
778,08	2374,82
778,26	2345,33
778,44	2380,15
778,62	2484,19
778,80	2623,45
778,98	2505,89
779,16	2387,11
779,34	2576,34
779,52	2397,76
779,70	2535,79
779,88	2371,96
780,05	2377,28
780,23	2330,18
780,41	2369,91
780,59	2357,21
780,77	2419,47
780,95	2320,76
781,13	2407,59
781,31	2258,50
781,49	2464,53
781,67	2321,58
781,85	2280,62
782,03	2361,31
782,21	2316,66
782,39	2310,52
782,56	2401,04
782,74	2381,79
782,92	2314,20
783,10	2527,60
783,28	2274,88
783,46	2224,50
783,64	2380,97
783,82	2276,52
784,00	2344,11
784,18	2255,63
784,35	2143,40
784,53	2265,87
784,71	2190,51
784,89	2224,50
785,07	2196,24
785,25	2259,73
785,43	2308,88
785,61	2135,62
785,79	2201,16
785,96	2320,35
786,14	2178,22
786,32	2277,75
786,50	2278,16
786,68	2090,16
786,86	2207,30
787,04	2235,56
787,22	2189,28
787,39	2196,24
787,57	2150,37
787,75	2199,11
787,93	2286,35
788,11	2093,02
788,29	2222,87
788,47	2214,26
788,65	2185,59
788,82	2206,07
789,00	2148,32
789,18	2242,12
789,36	2152,01
789,54	2104,49
789,72	2098,76
789,89	2133,16
790,07	2278,16
790,25	2213,44
790,43	2130,30
790,61	2175,76
790,79	2121,70
790,96	2141,36
791,14	2213,44
791,32	2033,22
791,50	2171,67
791,68	2228,19
791,86	2115,55
792,03	2109,41
792,21	2145,86
792,39	2041,82
792,57	2072,95
792,75	1977,93
792,93	2100,40
793,10	2084,83
793,28	2077,46
793,46	2005,37
793,64	2167,98
793,82	2238,02
793,99	2144,63
794,17	1999,64
794,35	2095,48
794,53	2092,61
794,71	1950,90
794,88	2001,28
795,06	2074,59
795,24	2041,42
795,42	2081,97
795,60	2159,38
795,77	2017,25
795,95	2038,14
796,13	2018,07
796,31	2072,13
796,49	2201,16
796,66	2067,22
796,84	1973,83
797,02	2149,14
797,20	2124,97
797,37	2045,51
797,55	1957,04
797,73	1976,29
797,91	1974,65
798,08	2094,66
798,26	2078,28
798,44	1954,17
798,62	1946,39
798,80	1954,17
798,97	1959,09
799,15	1966,46
799,33	2147,09
799,51	2112,68
799,68	2034,45
799,86	2081,97
800,04	2020,53
800,22	2017,25
800,39	1970,97
800,57	2124,15
800,75	2028,72
800,93	2048,79
801,10	2070,91
801,28	2115,14
801,46	1940,25
801,63	2008,24
801,81	2014,38
801,99	1945,16
802,17	1973,01
802,34	2145,04
802,52	1880,04
802,70	2054,11
802,88	2072,54
803,05	2098,35
803,23	1936,15
803,41	1954,17
803,58	2019,71
803,76	2039,37
803,94	2063,94
804,12	2011,11
804,29	1993,49
804,47	2056,16
804,65	1962,77
804,82	1948,03
805,00	1938,20
805,18	1907,48
805,35	1907,07
805,53	2001,68
805,71	1965,23
805,89	1988,58
806,06	2016,84
806,24	1825,15
806,42	1899,70
806,59	1891,91
806,77	2000,87
806,95	1960,32
807,12	1983,66
807,30	1998,82
807,48	1864,06
807,65	1844,81
807,83	1980,39
808,01	1968,92
808,18	2006,19
808,36	1986,12
808,54	1796,89
808,71	1932,46
808,89	1939,02
809,07	1987,76
809,24	1991,04
809,42	2053,70
809,60	1810,40
809,77	1918,95
809,95	1995,13
810,13	1880,85
810,30	1907,89
810,48	2043,05
810,66	1888,64
810,83	1961,54
811,01	1910,35
811,18	1886,18
811,36	1706,78
811,54	1890,68
811,71	1940,25
811,89	1955,40
812,07	1848,91
812,24	2030,36
812,42	1850,54
812,59	1889,05
812,77	1927,55
812,95	1982,84
813,12	1917,31
813,30	1868,98
813,48	1872,66
813,65	1925,09
813,83	1940,25
814,00	1977,11
814,18	1995,13
814,36	1862,83
814,53	1916,08
814,71	1864,47
814,88	1957,45
815,06	1846,45
815,24	1986,12
815,41	1786,65
815,59	1889,46
815,76	1807,54
815,94	2012,74
816,12	1846,45
816,29	1964,82
816,47	1896,01
816,64	2013,56
816,82	1786,24
817,00	1944,75
817,17	1866,93
817,35	2098,35
817,52	1886,18
817,70	1907,89
817,87	1963,59
818,05	1809,59
818,23	1835,80
818,40	2000,87
818,58	1900,51
818,75	1797,71
818,93	1847,27
819,10	1915,67
819,28	1841,53
819,46	1913,62
819,63	1784,19
819,81	1951,71
819,98	1739,54
820,16	1927,14
820,33	1750,19
820,51	1979,16
820,68	1875,53
820,86	1916,49
821,03	1959,91
821,21	1930,01
821,39	2012,74
821,56	1878,40
821,74	1770,67
821,91	1797,71
822,09	1811,22
822,26	1840,30
822,44	1779,68
822,61	1793,20
822,79	1905,43
822,96	1812,86
823,14	1781,32
823,31	1807,13
823,49	1924,27
823,66	1855,87
823,84	1862,42
824,01	1799,75
824,19	1701,04
824,36	1875,12
824,54	1868,98
824,71	1904,20
824,89	1858,33
825,06	1944,75
825,24	1808,77
825,41	1891,50
825,59	1843,17
825,76	1882,49
825,94	1773,13
826,11	1925,50
826,29	1769,45
826,46	1790,33
826,64	1915,67
826,81	1900,92
826,99	1813,27
827,16	1725,21
827,34	1712,10
827,51	1767,81
827,69	1987,35
827,86	1870,61
828,04	1805,90
828,21	1849,32
828,39	1866,93
828,56	1794,84
828,74	1886,18
828,91	1815,32
829,09	2097,12
829,26	1777,64
829,43	1880,04
829,61	1786,24
829,78	1808,77
829,96	1857,10
830,13	1712,92
830,31	1825,97
830,48	1837,44
830,66	1758,80
830,83	1756,75
831,01	1758,39
831,18	1812,86
831,35	1779,28
831,53	1899,29
831,70	1892,32
831,88	2027,49
832,05	1848,09
832,23	1748,56
832,40	1838,26
832,57	1890,68
832,75	1719,47
832,92	1877,99
833,10	1971,78
833,27	1821,05
833,45	1757,16
833,62	1751,01
833,79	1827,61
833,97	1715,79
834,14	1806,72
834,32	1832,52
834,49	1698,59
834,66	1753,06
834,84	1687,94
835,01	1859,97
835,19	1685,48
835,36	1753,88
835,53	1933,28
835,71	1784,19
835,88	1842,76
836,06	1821,05
836,23	1887,82
836,40	1698,59
836,58	1721,11
836,75	1815,73
836,93	1771,08
837,10	1789,11
837,27	1804,67
837,45	1785,42
837,62	1724,39
837,79	1723,57
837,97	1848,50
838,14	1728,90
838,32	1787,06
838,49	1742,41
838,66	1816,55
838,84	1849,32
839,01	1878,40
839,18	1799,75
839,36	1698,59
839,53	1736,68
839,70	1853,41
839,88	1769,45
840,05	1873,89
840,23	1771,90
840,40	1698,18
840,57	1809,59
840,75	1765,35
840,92	1920,18
841,09	1798,53
841,27	1847,27
841,44	1748,15
841,61	1853,00
841,79	1791,15
841,96	1744,05
842,13	1646,98
842,31	1757,98
842,48	1792,38
842,65	1685,07
842,83	1769,45
843,00	1804,26
843,17	1734,63
843,35	1860,78
843,52	1726,85
843,69	1836,62
843,86	1725,62
844,04	1735,45
844,21	1766,99
844,38	1828,02
844,56	1758,80
844,73	1835,80
844,90	1813,68
845,08	1770,26
845,25	1723,16
845,42	1824,33
845,60	1786,24
845,77	1731,35
845,94	1718,25
846,11	1809,59
846,29	1908,30
846,46	1760,02
846,63	1735,04
846,81	1864,06
846,98	1755,11
847,15	1755,93
847,32	1787,47
847,50	1712,92
847,67	1760,84
847,84	1784,60
848,01	1825,97
848,19	1788,70
848,36	1769,45
848,53	1698,99
848,71	1836,62
848,88	1703,50
849,05	1674,42
849,22	1739,95
849,40	1689,57
849,57	1816,96
849,74	1766,99
849,91	1778,46
850,09	1697,36
850,26	1713,33
850,43	1720,29
850,60	1705,55
850,78	1782,96
850,95	1780,09
851,12	1660,90
851,29	1832,11
851,47	1847,27
851,64	1719,47
851,81	1785,01
851,98	1710,05
852,15	1893,96
852,33	1669,91
852,50	1723,98
852,67	1769,04
852,84	1741,18
853,02	1827,20
853,19	1855,46
853,36	1693,67
853,53	1665,82
853,70	1904,20
853,88	1831,29
854,05	1830,88
854,22	1690,39
854,39	1781,32
854,56	1787,47
854,74	1678,11
854,91	1791,56
855,08	1585,13
855,25	1766,99
855,42	1693,67
855,60	1736,68
855,77	1811,22
855,94	1909,53
856,11	1731,35
856,28	1743,23
856,46	1834,16
856,63	1759,61
856,80	1673,60
856,97	1839,90
857,14	1787,47
857,31	1690,39
857,49	1730,94
857,66	1805,49
857,83	1699,40
858,00	1704,73
858,17	1710,46
858,34	1745,28
858,52	1659,26
858,69	1738,73
858,86	1742,41
859,03	1708,01
859,20	1809,99
859,37	1738,73
859,55	1708,42
859,72	1743,64
859,89	1735,45
860,06	1790,33
860,23	1845,63
860,40	1679,74
860,57	1796,07
860,75	1634,28
860,92	1810,40
861,09	1780,50
861,26	1793,61
861,43	1751,83
861,60	1704,73
861,77	1648,61
861,95	1675,65
862,12	1790,74
862,29	1682,61
862,46	1794,84
862,63	1846,45
862,80	1812,45
862,97	1890,68
863,14	1649,84
863,31	1817,78
863,49	1798,53
863,66	1806,31
863,83	1771,49
864,00	1819,01
864,17	1668,68
864,34	1741,18
864,51	1655,99
864,68	1798,12
864,85	1729,30
865,02	1719,47
865,20	1807,54
865,37	1720,70
865,54	1726,44
865,71	1787,47
865,88	1696,13
866,05	1657,63
866,22	1704,73
866,39	1705,96
866,56	1705,14
866,73	1703,50
866,90	1880,04
867,07	1805,08
867,25	1677,70
867,42	1833,34
867,59	1692,44
867,76	1811,22
867,93	1695,31
868,10	1796,07
868,27	1678,11
868,44	1810,40
868,61	1739,95
868,78	1814,09
868,95	1667,46
869,12	1813,27
869,29	1763,71
869,46	1780,50
869,63	1783,78
869,80	1692,85
869,97	1814,09
870,14	1748,97
870,32	1758,80
870,49	1717,43
870,66	1774,77
870,83	1764,12
871,00	1723,16
871,17	1706,78
871,34	1746,92
871,51	1701,45
871,68	1661,72
871,85	1775,59
872,02	1848,50
872,19	1735,86
872,36	1666,64
872,53	1755,93
872,70	1793,61
872,87	1679,33
873,04	1653,53
873,21	1643,29
873,38	1639,60
873,55	1836,21
873,72	1751,42
873,89	1712,92
874,06	1617,08
874,23	1614,62
874,40	1672,78
874,57	1699,81
874,74	1897,65
874,91	1661,72
875,08	1706,78
875,25	1731,35
875,42	1778,46
875,59	1786,65
875,76	1766,17
875,93	1762,07
876,10	1889,46
876,27	1638,78
876,44	1923,86
876,61	1814,91
876,78	1724,80
876,95	1820,64
877,12	1711,69
877,29	1733,40
877,46	1758,39
877,62	1728,49
877,79	1633,46
877,96	1751,42
878,13	1676,06
878,30	1735,45
878,47	1805,90
878,64	1813,68
878,81	1760,84
878,98	1718,25
879,15	1824,74
879,32	1822,69
879,49	1805,08
879,66	1800,16
879,83	1666,23
880,00	1872,66
880,17	1646,57
880,34	1751,01
880,51	1705,14
880,67	1852,59
880,84	1575,30
881,01	1726,03
881,18	1853,82
881,35	1722,34
881,52	1857,10
881,69	1691,21
881,86	1868,57
882,03	1731,76
882,20	1774,36
882,37	1751,42
882,54	1862,83
882,70	1743,23
882,87	1667,87
883,04	1797,71
883,21	1777,23
883,38	1650,66
883,55	1745,69
883,72	1674,01
883,89	1651,48
884,06	1653,12
884,23	1654,35
884,39	1604,79
884,56	1809,99
884,73	1795,25
884,90	1735,86
885,07	1811,63
885,24	1709,64
885,41	1848,91
885,58	1698,99
885,74	1610,93
885,91	1776,82
886,08	1751,42
886,25	1668,68
886,42	1705,14
886,59	1756,75
886,76	1653,12
886,93	1576,94
887,09	1851,77
887,26	1974,65
887,43	1740,36
887,60	1733,40
887,77	1767,81
887,94	1793,20
888,10	1943,93
888,27	1857,51
888,44	1786,24
888,61	1615,85
888,78	1645,75
888,95	1798,94
889,12	1678,11
889,28	1815,73
889,45	1677,70
889,62	1731,35
889,79	1674,83
889,96	1750,19
890,13	1727,26
890,29	1719,88
890,46	1865,29
890,63	1800,57
890,80	1755,11
890,97	1678,92
891,13	1644,11
891,30	1823,92
891,47	1894,37
891,64	1689,16
891,81	1626,91
891,98	1717,02
892,14	1766,99
892,31	1679,33
892,48	1684,66
892,65	1661,31
892,82	1723,16
892,98	1623,63
893,15	1763,71
893,32	1767,81
>>>>>End Processed Spectral Data<<<<<
