SpectraSuite Datei
++++++++++++++++++++++++++++++++++++
Datum: Mon Mar 09 11:50:23 CET 2020
Benutzer: Lichtquellen1
Dark-Spektrum vorhanden: Nein
Referenz-Spektrum vorhanden: Nein
Zahl der probierten Teilspektren: 1
Spektrometer: USB4F05832
Integrationszeit (usec): 200000 (USB4F05832)
Spektren Durchschnitt berechnet: 5 (USB4F05832)
Boxcar Glättung: 0 (USB4F05832)
Dunkelstromkorrektur: Nein (USB4F05832)
Puls/Lampe aktiviert: Nein (USB4F05832)
Correct for Detector Non-linearity: Nein (USB4F05832)
Streulichtkorrektur: Nein (USB4F05832)
Anzahl Pixel in verarbeitetem Spektrum: 3648
>>>>>Begin Processed Spectral Data<<<<<
177,54	1349,20
177,75	1349,20
177,97	1349,20
178,19	1342,65
178,41	1348,79
178,63	1741,59
178,85	1502,39
179,07	1612,57
179,29	1658,04
179,51	1531,06
179,73	1654,76
179,95	1628,14
180,17	1628,54
180,39	1757,57
180,61	1692,03
180,83	1796,07
181,05	1571,61
181,27	1664,18
181,49	1624,45
181,71	1621,99
181,92	1902,15
182,14	1687,12
182,36	1608,88
182,58	1768,22
182,80	1650,25
183,02	1859,97
183,24	1789,92
183,46	1722,34
183,68	1602,74
183,90	1737,50
184,12	1581,85
184,34	1744,05
184,56	1662,54
184,78	1596,60
185,00	1687,94
185,21	1790,74
185,43	1627,73
185,65	1699,81
185,87	1658,04
186,09	1840,30
186,31	1716,20
186,53	1709,64
186,75	1735,45
186,97	1790,74
187,19	1824,74
187,41	1602,74
187,63	1792,79
187,84	1573,25
188,06	1732,99
188,28	1668,28
188,50	1739,54
188,72	1851,36
188,94	1756,34
189,16	1596,19
189,38	1663,77
189,60	1750,19
189,82	1627,32
190,03	1764,94
190,25	1672,37
190,47	1737,09
190,69	1703,91
190,91	1564,65
191,13	1692,44
191,35	1806,31
191,57	1627,73
191,79	1678,92
192,01	1748,56
192,22	1795,25
192,44	1644,52
192,66	1735,86
192,88	1691,21
193,10	1667,05
193,32	1649,84
193,54	1835,80
193,76	1827,61
193,98	1628,14
194,19	1732,99
194,41	1689,57
194,63	1596,19
194,85	1691,21
195,07	1776,41
195,29	1547,04
195,51	1791,56
195,73	1665,00
195,94	1670,32
196,16	1686,71
196,38	1871,43
196,60	1662,13
196,82	1591,27
197,04	1663,36
197,26	1641,65
197,48	1610,11
197,69	1747,74
197,91	1596,19
198,13	1668,68
198,35	1701,04
198,57	1676,06
198,79	1797,30
199,01	1717,84
199,22	1702,68
199,44	1776,82
199,66	1685,07
199,88	1678,11
200,10	1780,50
200,32	1738,73
200,54	1732,58
200,75	1837,44
200,97	1608,88
201,19	1759,61
201,41	1727,26
201,63	1626,91
201,85	1636,33
202,06	1821,05
202,28	1687,94
202,50	1702,68
202,72	1550,31
202,94	1622,40
203,16	1630,59
203,38	1678,52
203,59	1671,14
203,81	1775,59
204,03	1555,64
204,25	1724,80
204,47	1803,85
204,69	1723,16
204,90	1638,78
205,12	1678,92
205,34	1717,02
205,56	1680,15
205,78	1628,95
206,00	1866,11
206,21	1774,36
206,43	1673,19
206,65	1743,23
206,87	1620,35
207,09	1746,92
207,30	1591,68
207,52	1762,48
207,74	1736,68
207,96	1618,30
208,18	1628,54
208,40	1648,21
208,61	1635,10
208,83	1660,08
209,05	1589,22
209,27	1563,83
209,49	1731,35
209,70	1740,77
209,92	1738,73
210,14	1602,33
210,36	1684,66
210,58	1698,18
210,79	1721,93
211,01	1579,80
211,23	1727,26
211,45	1789,92
211,67	1699,81
211,88	1591,68
212,10	1781,73
212,32	1606,02
212,54	1637,15
212,76	1693,26
212,97	1592,91
213,19	1615,03
213,41	1768,63
213,63	1635,92
213,85	1668,28
214,06	1576,94
214,28	1796,48
214,50	1649,84
214,72	1735,04
214,94	1736,27
215,15	1646,16
215,37	1638,78
215,59	1657,22
215,81	1746,51
216,02	1685,07
216,24	1750,60
216,46	1569,15
216,68	1686,30
216,90	1660,49
217,11	1766,58
217,33	1611,75
217,55	1796,48
217,77	1706,78
217,98	1780,09
218,20	1738,32
218,42	1798,12
218,64	1699,81
218,85	1816,96
219,07	1659,67
219,29	1667,05
219,51	1770,67
219,73	1654,76
219,94	1640,01
220,16	1803,44
220,38	1700,22
220,60	1652,71
220,81	1602,74
221,03	1586,36
221,25	1738,32
221,47	1576,94
221,68	1670,73
221,90	1747,33
222,12	1692,03
222,34	1719,47
222,55	1720,29
222,77	1847,68
222,99	1675,24
223,21	1708,42
223,42	1789,92
223,64	1761,66
223,86	1652,71
224,08	1719,06
224,29	1791,15
224,51	1736,68
224,73	1735,04
224,94	1707,60
225,16	1654,76
225,38	1659,67
225,60	1740,77
225,81	1673,60
226,03	1685,07
226,25	1574,48
226,47	1723,57
226,68	1748,15
226,90	1717,02
227,12	1716,61
227,33	1735,04
227,55	1628,54
227,77	1612,57
227,99	1809,18
228,20	1632,64
228,42	1689,16
228,64	1737,50
228,86	1689,16
229,07	1714,97
229,29	1587,99
229,51	1508,53
229,72	1809,99
229,94	1694,90
230,16	1739,54
230,38	1637,97
230,59	1657,63
230,81	1811,63
231,03	1709,64
231,24	1666,64
231,46	1652,71
231,68	1620,35
231,89	1672,37
232,11	1615,44
232,33	1851,36
232,55	1661,31
232,76	1735,86
232,98	1668,68
233,20	1639,60
233,41	1593,32
233,63	1662,13
233,85	1674,01
234,06	1633,05
234,28	1721,52
234,50	1636,74
234,71	1707,19
234,93	1800,98
235,15	1720,29
235,37	1575,71
235,58	1705,14
235,80	1615,85
236,02	1594,96
236,23	1731,35
236,45	1601,51
236,67	1746,92
236,88	1687,94
237,10	1744,05
237,32	1785,01
237,53	1714,97
237,75	1666,64
237,97	1591,68
238,18	1650,25
238,40	1695,72
238,62	1666,23
238,83	1697,36
239,05	1612,16
239,27	1658,04
239,48	1601,10
239,70	1660,49
239,92	1805,90
240,13	1790,33
240,35	1637,97
240,57	1704,73
240,78	1725,62
241,00	1590,04
241,22	1655,58
241,43	1837,44
241,65	1649,84
241,87	1806,72
242,08	1912,80
242,30	1607,66
242,52	1692,44
242,73	1765,76
242,95	1621,58
243,16	1710,87
243,38	1842,76
243,60	1700,22
243,81	1722,34
244,03	1766,17
244,25	1574,48
244,46	1658,85
244,68	1629,77
244,90	1665,82
245,11	1605,61
245,33	1683,02
245,55	1721,11
245,76	1696,54
245,98	1626,09
246,19	1804,26
246,41	1848,50
246,63	1746,51
246,84	1801,39
247,06	1694,08
247,28	1721,11
247,49	1704,73
247,71	1610,52
247,92	1710,87
248,14	1779,28
248,36	1751,42
248,57	1736,27
248,79	1813,27
249,01	1672,78
249,22	1679,74
249,44	1751,83
249,65	1666,23
249,87	1712,10
250,09	1751,42
250,30	1704,73
250,52	1685,89
250,73	1754,70
250,95	1619,53
251,17	1692,44
251,38	1622,40
251,60	1625,27
251,81	1800,57
252,03	1844,81
252,25	1579,39
252,46	1659,67
252,68	1781,73
252,89	1724,80
253,11	1698,59
253,33	1723,98
253,54	1583,08
253,76	1734,22
253,97	1786,65
254,19	1727,67
254,41	1609,70
254,62	1789,92
254,84	1730,94
255,05	1739,14
255,27	1753,47
255,49	1778,87
255,70	1791,56
255,92	1644,11
256,13	1642,88
256,35	1740,36
256,56	1784,60
256,78	1732,17
257,00	1778,87
257,21	1676,06
257,43	1605,20
257,64	1731,35
257,86	1761,66
258,08	1705,14
258,29	1835,80
258,51	1657,22
258,72	1758,39
258,94	1798,53
259,15	1702,27
259,37	1705,55
259,59	1619,53
259,80	1777,23
260,02	1652,30
260,23	1680,15
260,45	1587,59
260,66	1732,17
260,88	1720,29
261,09	1717,43
261,31	1654,35
261,53	1752,65
261,74	1794,84
261,96	1534,34
262,17	1639,60
262,39	1680,97
262,60	1709,23
262,82	1671,55
263,03	1682,20
263,25	1744,87
263,46	1648,61
263,68	1728,90
263,90	1689,57
264,11	1624,86
264,33	1823,92
264,54	1742,00
264,76	1728,08
264,97	1805,90
265,19	1624,86
265,40	1762,07
265,62	1695,31
265,83	1737,91
266,05	1731,76
266,26	1664,59
266,48	1814,50
266,70	1829,25
266,91	1579,39
267,13	1726,03
267,34	1658,45
267,56	1712,92
267,77	1659,67
267,99	1638,38
268,20	1821,87
268,42	1694,08
268,63	1588,40
268,85	1937,38
269,06	1787,47
269,28	1738,32
269,49	1701,04
269,71	1739,95
269,92	1674,01
270,14	1645,34
270,35	1692,85
270,57	1731,35
270,78	1683,02
271,00	1680,97
271,21	1907,89
271,43	1610,93
271,64	1627,32
271,86	1782,14
272,07	1592,50
272,29	1856,28
272,50	1666,64
272,72	1837,44
272,93	1772,72
273,15	1819,42
273,36	1773,95
273,58	1682,61
273,79	1696,54
274,01	1689,98
274,22	1617,90
274,44	1702,68
274,65	1737,50
274,87	1742,82
275,08	1734,22
275,30	1776,00
275,51	1908,30
275,73	1843,99
275,94	1663,77
276,16	1680,56
276,37	1697,36
276,59	1704,32
276,80	1691,21
277,02	1725,21
277,23	1666,23
277,45	1740,77
277,66	1524,10
277,88	1769,85
278,09	1837,85
278,30	1764,94
278,52	1615,44
278,73	1902,56
278,95	1712,92
279,16	1834,16
279,38	1750,60
279,59	1714,15
279,81	1695,72
280,02	1702,68
280,24	1655,99
280,45	1686,71
280,67	1813,27
280,88	1794,02
281,09	1605,61
281,31	1617,08
281,52	1690,80
281,74	1875,12
281,95	1728,08
282,17	1708,42
282,38	1756,75
282,60	1663,36
282,81	1774,36
283,02	1619,94
283,24	1637,15
283,45	1841,53
283,67	1634,28
283,88	1767,81
284,10	1668,68
284,31	1765,35
284,53	1705,55
284,74	1719,06
284,95	1701,45
285,17	1714,97
285,38	1659,67
285,60	1685,89
285,81	1639,19
286,03	1742,82
286,24	1754,29
286,45	1785,83
286,67	1716,20
286,88	1696,54
287,10	1766,17
287,31	1590,45
287,53	1728,90
287,74	1757,98
287,95	1627,73
288,17	1770,67
288,38	1737,09
288,60	1669,09
288,81	1642,47
289,02	1690,80
289,24	1842,76
289,45	1685,48
289,67	1737,50
289,88	1700,63
290,10	1720,70
290,31	1754,70
290,52	1712,10
290,74	1687,12
290,95	1773,95
291,17	1766,58
291,38	1633,05
291,59	1631,41
291,81	1670,73
292,02	1683,43
292,24	1712,92
292,45	1771,90
292,66	1739,54
292,88	1826,38
293,09	1728,08
293,31	1724,39
293,52	1657,22
293,73	1621,58
293,95	1736,68
294,16	1750,19
294,37	1739,14
294,59	1733,40
294,80	1859,97
295,02	1711,28
295,23	1570,79
295,44	1743,23
295,66	1640,42
295,87	1744,46
296,09	1669,50
296,30	1708,01
296,51	1646,98
296,73	1675,65
296,94	1646,98
297,15	1623,63
297,37	1629,36
297,58	1681,79
297,79	1727,67
298,01	1706,78
298,22	1773,54
298,44	1597,01
298,65	1679,74
298,86	1796,07
299,08	1634,69
299,29	1662,54
299,50	1687,94
299,72	1635,92
299,93	1746,92
300,14	1744,05
300,36	1616,26
300,57	1606,43
300,79	1684,66
301,00	1789,92
301,21	1611,34
301,43	1682,61
301,64	1655,99
301,85	1639,60
302,07	1775,59
302,28	1667,05
302,49	1853,00
302,71	1695,31
302,92	1781,73
303,13	1807,13
303,35	1688,76
303,56	1731,76
303,77	1579,80
303,99	1705,96
304,20	1719,06
304,41	1645,34
304,63	1668,68
304,84	1783,78
305,05	1753,47
305,27	1732,99
305,48	1782,14
305,69	1681,38
305,91	1741,18
306,12	1665,00
306,33	1728,08
306,55	1700,63
306,76	1636,74
306,97	1688,76
307,19	1687,53
307,40	1756,75
307,61	1766,58
307,82	1662,13
308,04	1796,89
308,25	1741,18
308,46	1726,03
308,68	1723,57
308,89	1777,64
309,10	1700,22
309,32	1697,36
309,53	1650,66
309,74	1732,99
309,96	1681,38
310,17	1667,05
310,38	1643,70
310,59	1721,11
310,81	1673,60
311,02	1697,77
311,23	1700,63
311,45	1701,04
311,66	1718,66
311,87	1680,56
312,09	1797,71
312,30	1722,75
312,51	1774,77
312,72	1757,98
312,94	1757,98
313,15	1687,12
313,36	1765,76
313,58	1664,18
313,79	1834,98
314,00	1690,80
314,21	1590,86
314,43	1746,10
314,64	1723,57
314,85	1641,65
315,06	1653,94
315,28	1789,52
315,49	1763,71
315,70	1732,99
315,92	1808,77
316,13	1869,39
316,34	1776,41
316,55	1761,66
316,77	1614,21
316,98	1840,30
317,19	1655,58
317,40	1558,09
317,62	1583,49
317,83	1838,26
318,04	1658,85
318,25	1666,64
318,47	1653,94
318,68	1691,62
318,89	1777,64
319,11	1715,79
319,32	1701,04
319,53	1773,13
319,74	1774,36
319,96	1772,31
320,17	1694,08
320,38	1630,59
320,59	1824,74
320,81	1700,22
321,02	1725,21
321,23	1642,47
321,44	1831,70
321,65	1716,20
321,87	1723,57
322,08	1838,67
322,29	1718,25
322,50	1628,14
322,72	1709,23
322,93	1710,46
323,14	1674,83
323,35	1667,46
323,57	1772,31
323,78	1714,56
323,99	1747,33
324,20	1787,06
324,41	1649,02
324,63	1717,84
324,84	1691,62
325,05	1738,73
325,26	1758,80
325,48	1731,35
325,69	1710,46
325,90	1746,92
326,11	1689,16
326,32	1685,07
326,54	1746,51
326,75	1689,16
326,96	1678,92
327,17	1755,11
327,39	1771,49
327,60	1764,12
327,81	1686,71
328,02	1670,32
328,23	1698,18
328,45	1784,19
328,66	1648,21
328,87	1754,70
329,08	1803,03
329,29	1689,16
329,51	1661,31
329,72	1647,39
329,93	1745,69
330,14	1630,18
330,35	1719,06
330,56	1666,23
330,78	1734,22
330,99	1727,26
331,20	1774,36
331,41	1830,47
331,62	1614,21
331,84	1663,36
332,05	1662,54
332,26	1752,65
332,47	1764,53
332,68	1636,74
332,90	1665,41
333,11	1590,86
333,32	1858,74
333,53	1744,05
333,74	1554,41
333,95	1774,36
334,17	1696,54
334,38	1712,10
334,59	1594,14
334,80	1652,30
335,01	1797,30
335,22	1762,07
335,44	1701,04
335,65	1614,21
335,86	1797,30
336,07	1705,55
336,28	1636,33
336,49	1655,58
336,71	1595,78
336,92	1835,39
337,13	1733,40
337,34	1640,42
337,55	1888,23
337,76	1705,14
337,97	1753,47
338,19	1707,60
338,40	1627,32
338,61	1774,77
338,82	1735,45
339,03	1780,09
339,24	1612,16
339,45	1616,26
339,67	1760,43
339,88	1730,94
340,09	1710,87
340,30	1637,97
340,51	1828,43
340,72	1711,28
340,93	1557,28
341,15	1731,35
341,36	1813,27
341,57	1642,06
341,78	1627,32
341,99	1762,07
342,20	1805,49
342,41	1673,19
342,62	1858,33
342,84	1587,18
343,05	1798,12
343,26	1649,02
343,47	1780,09
343,68	1553,59
343,89	1711,28
344,10	1696,13
344,31	1712,92
344,53	1599,87
344,74	1670,32
344,95	1660,90
345,16	1687,94
345,37	1751,83
345,58	1712,10
345,79	1581,85
346,00	1601,10
346,21	1618,30
346,42	1645,75
346,64	1641,65
346,85	1753,47
347,06	1743,64
347,27	1617,08
347,48	1812,86
347,69	1754,29
347,90	1675,65
348,11	1794,02
348,32	1612,57
348,53	1666,64
348,75	1592,50
348,96	1663,77
349,17	1600,69
349,38	1663,77
349,59	1714,56
349,80	1600,28
350,01	1848,09
350,22	1766,17
350,43	1629,77
350,64	1780,50
350,85	1810,81
351,06	1624,45
351,28	1690,39
351,49	1606,84
351,70	1737,50
351,91	1612,98
352,12	1699,81
352,33	1683,02
352,54	1579,39
352,75	1589,63
352,96	1604,38
353,17	1744,05
353,38	1752,65
353,59	1763,30
353,80	1848,91
354,01	1776,00
354,22	1656,81
354,44	1660,08
354,65	1794,84
354,86	1654,35
355,07	1640,01
355,28	1586,36
355,49	1660,90
355,70	1634,69
355,91	1771,49
356,12	1578,16
356,33	1619,12
356,54	1706,37
356,75	1707,19
356,96	1665,82
357,17	1822,69
357,38	1666,23
357,59	1689,16
357,80	1791,97
358,01	1683,02
358,22	1776,82
358,43	1728,49
358,64	1714,15
358,85	1635,10
359,07	1800,16
359,28	1614,21
359,49	1724,39
359,70	1608,47
359,91	1694,90
360,12	1636,74
360,33	1778,46
360,54	1616,26
360,75	1629,77
360,96	1648,61
361,17	1561,37
361,38	1604,38
361,59	1802,21
361,80	1581,03
362,01	1766,17
362,22	1691,21
362,43	1591,68
362,64	1664,18
362,85	1694,08
363,06	1875,53
363,27	1792,38
363,48	1785,42
363,69	1841,94
363,90	1613,80
364,11	1727,26
364,32	1652,71
364,53	1711,69
364,74	1714,15
364,95	1763,30
365,16	1696,95
365,37	1800,98
365,58	1647,39
365,79	1661,72
366,00	1766,99
366,21	1630,59
366,42	1757,16
366,63	1781,73
366,84	1634,69
367,05	1712,10
367,26	1753,88
367,47	1795,25
367,68	1698,99
367,89	1715,79
368,10	1713,33
368,31	1598,23
368,52	1763,71
368,73	1694,90
368,94	1628,95
369,15	1658,45
369,36	1667,05
369,57	1639,60
369,78	1642,88
369,99	1674,01
370,20	1708,83
370,40	1558,91
370,61	1563,42
370,82	1642,88
371,03	1660,08
371,24	1700,63
371,45	1646,98
371,66	1561,37
371,87	1693,67
372,08	1755,52
372,29	1681,79
372,50	1728,90
372,71	1675,24
372,92	1722,75
373,13	1621,17
373,34	1614,21
373,55	1621,17
373,76	1775,18
373,97	1705,14
374,18	1676,06
374,39	1671,55
374,60	1785,83
374,81	1687,53
375,01	1610,93
375,22	1718,66
375,43	1639,19
375,64	1626,09
375,85	1563,42
376,06	1663,77
376,27	1686,30
376,48	1683,02
376,69	1729,71
376,90	1722,34
377,11	1739,54
377,32	1715,38
377,53	1658,85
377,74	1729,71
377,94	1609,29
378,15	1714,97
378,36	1773,13
378,57	1566,29
378,78	1815,32
378,99	1628,14
379,20	1862,01
379,41	1684,66
379,62	1642,47
379,83	1542,94
380,04	1683,43
380,25	1696,13
380,45	1715,38
380,66	1753,06
380,87	1612,57
381,08	1686,30
381,29	1628,14
381,50	1722,34
381,71	1712,51
381,92	1649,43
382,13	1545,40
382,34	1716,20
382,55	1666,23
382,75	1708,83
382,96	1789,52
383,17	1572,43
383,38	1790,74
383,59	1822,28
383,80	1612,57
384,01	1624,04
384,22	1784,19
384,43	1764,12
384,63	1693,26
384,84	1607,25
385,05	1781,73
385,26	1684,25
385,47	1711,28
385,68	1655,99
385,89	1764,53
386,10	1637,56
386,30	1681,38
386,51	1581,44
386,72	1648,61
386,93	1577,76
387,14	1708,42
387,35	1705,14
387,56	1797,71
387,77	1565,88
387,97	1640,42
388,18	1647,39
388,39	1646,57
388,60	1671,55
388,81	1735,45
389,02	1709,64
389,23	1644,93
389,43	1678,52
389,64	1658,85
389,85	1656,40
390,06	1758,80
390,27	1591,27
390,48	1808,36
390,69	1617,08
390,89	1655,17
391,10	1675,24
391,31	1626,09
391,52	1640,01
391,73	1688,76
391,94	1655,17
392,14	1576,94
392,35	1557,69
392,56	1603,15
392,77	1673,60
392,98	1683,02
393,19	1723,98
393,39	1781,73
393,60	1707,19
393,81	1780,50
394,02	1790,74
394,23	1579,39
394,44	1545,40
394,64	1680,15
394,85	1673,60
395,06	1726,44
395,27	1683,84
395,48	1741,59
395,69	1732,58
395,89	1678,11
396,10	1692,44
396,31	1876,35
396,52	1550,72
396,73	1676,47
396,93	1603,56
397,14	1731,76
397,35	1764,94
397,56	1756,75
397,77	1616,67
397,97	1606,02
398,18	1697,77
398,39	1707,19
398,60	1716,20
398,81	1611,75
399,01	1612,98
399,22	1646,98
399,43	1779,28
399,64	1809,18
399,85	1764,53
400,05	1605,20
400,26	1552,77
400,47	1611,34
400,68	1603,15
400,89	1923,04
401,09	1589,63
401,30	1655,99
401,51	1707,19
401,72	1625,68
401,93	1866,11
402,13	1619,53
402,34	1771,08
402,55	1682,20
402,76	1668,68
402,96	1682,61
403,17	1669,09
403,38	1747,74
403,59	1723,98
403,80	1711,28
404,00	1735,04
404,21	1692,85
404,42	1621,58
404,63	1581,44
404,83	1631,41
405,04	1713,33
405,25	1796,89
405,46	1776,82
405,66	1633,46
405,87	1694,90
406,08	1643,70
406,29	1757,98
406,49	1619,94
406,70	1754,29
406,91	1514,68
407,12	1631,82
407,32	1793,61
407,53	1716,20
407,74	1671,55
407,95	1782,55
408,15	1635,10
408,36	1579,80
408,57	1712,10
408,78	1678,11
408,98	1734,63
409,19	1773,54
409,40	1612,16
409,61	1631,00
409,81	1659,26
410,02	1626,50
410,23	1677,70
410,44	1721,11
410,64	1549,90
410,85	1683,84
411,06	1682,61
411,26	1790,33
411,47	1656,40
411,68	1805,90
411,89	1655,58
412,09	1620,35
412,30	1715,38
412,51	1658,04
412,72	1649,02
412,92	1664,18
413,13	1676,47
413,34	1628,95
413,54	1612,98
413,75	1676,47
413,96	1692,85
414,17	1614,62
414,37	1735,86
414,58	1793,61
414,79	1693,26
414,99	1715,79
415,20	1717,43
415,41	1599,46
415,61	1621,17
415,82	1705,14
416,03	1731,76
416,24	1626,91
416,44	1751,83
416,65	1728,90
416,86	1767,40
417,06	1615,03
417,27	1674,01
417,48	1682,20
417,68	1619,53
417,89	1722,75
418,10	1679,33
418,30	1768,22
418,51	1791,97
418,72	1686,71
418,92	1689,16
419,13	1737,50
419,34	1646,16
419,55	1770,67
419,75	2543,99
419,96	1702,27
420,17	1837,44
420,37	1643,70
420,58	1737,09
420,79	1618,71
420,99	1676,06
421,20	1809,59
421,41	1673,19
421,61	1698,18
421,82	1651,48
422,03	1725,21
422,23	1629,36
422,44	1690,80
422,65	1799,75
422,85	1609,70
423,06	1717,02
423,26	1698,59
423,47	1752,65
423,68	1758,80
423,88	1659,67
424,09	1714,15
424,30	1762,07
424,50	1577,76
424,71	1617,90
424,92	1749,37
425,12	1856,69
425,33	1769,44
425,54	1662,54
425,74	1639,19
425,95	1761,25
426,15	1547,85
426,36	1668,68
426,57	1734,22
426,77	1763,30
426,98	1604,79
427,19	1597,42
427,39	1575,71
427,60	1784,19
427,81	1678,11
428,01	1680,97
428,22	1662,13
428,42	1685,89
428,63	1593,73
428,84	1625,27
429,04	1660,90
429,25	1675,24
429,45	1522,05
429,66	1795,25
429,87	1618,71
430,07	1864,88
430,28	1719,47
430,49	1732,17
430,69	1676,88
430,90	1632,23
431,10	1643,70
431,31	1816,55
431,52	1697,36
431,72	1694,08
431,93	1744,87
432,13	1740,36
432,34	1699,40
432,55	1661,31
432,75	1645,34
432,96	1689,57
433,16	1719,06
433,37	1727,67
433,58	1624,04
433,78	1667,87
433,99	1614,62
434,19	1576,53
434,40	1642,88
434,60	1587,59
434,81	1693,26
435,02	1595,78
435,22	1624,86
435,43	1706,37
435,63	1652,30
435,84	1625,68
436,05	1779,68
436,25	1698,18
436,46	1738,32
436,66	1724,80
436,87	1712,92
437,07	1607,66
437,28	1674,83
437,48	1652,71
437,69	1612,57
437,90	1655,17
438,10	1626,09
438,31	1737,91
438,51	1595,78
438,72	1736,68
438,92	1594,96
439,13	1710,87
439,34	1661,72
439,54	1748,15
439,75	1654,35
439,95	1698,59
440,16	1578,57
440,36	1847,68
440,57	1731,35
440,77	1771,49
440,98	1659,26
441,18	1606,43
441,39	1731,35
441,60	1599,46
441,80	1711,28
442,01	1658,85
442,21	1706,37
442,42	1666,64
442,62	1666,64
442,83	1552,36
443,03	1676,06
443,24	1752,65
443,44	1697,36
443,65	1621,99
443,85	1617,90
444,06	1726,03
444,26	1708,42
444,47	1585,13
444,67	1629,77
444,88	1723,16
445,09	1701,04
445,29	1635,51
445,50	1807,54
445,70	1566,70
445,91	1671,55
446,11	1566,70
446,32	1734,63
446,52	1716,61
446,73	1622,40
446,93	1647,80
447,14	1644,52
447,34	1693,26
447,55	1553,59
447,75	1675,24
447,96	1697,77
448,16	1729,71
448,37	1653,12
448,57	1653,53
448,78	1693,26
448,98	1696,13
449,19	1727,26
449,39	1666,64
449,60	1717,43
449,80	1660,49
450,01	1671,96
450,21	1651,48
450,42	1658,85
450,62	1619,53
450,83	1641,65
451,03	1697,77
451,23	1645,34
451,44	1776,82
451,64	1639,19
451,85	1752,24
452,05	1669,50
452,26	1687,53
452,46	1661,72
452,67	1721,93
452,87	1549,08
453,08	1682,20
453,28	1618,71
453,49	1677,29
453,69	1737,09
453,90	1696,13
454,10	1778,05
454,31	1793,61
454,51	1681,38
454,71	1671,14
454,92	1669,50
455,12	1540,89
455,33	1596,19
455,53	1820,64
455,74	1617,08
455,94	1693,67
456,15	1761,25
456,35	1729,71
456,55	1591,68
456,76	1714,56
456,96	1663,77
457,17	1521,23
457,37	1763,71
457,58	1669,09
457,78	1662,13
457,99	1649,84
458,19	1695,31
458,39	1651,89
458,60	1653,12
458,80	1549,49
459,01	1623,63
459,21	1578,57
459,42	1676,47
459,62	1761,66
459,82	1665,41
460,03	1635,92
460,23	1665,00
460,44	1648,61
460,64	1645,34
460,85	1689,98
461,05	1609,70
461,25	1572,43
461,46	1638,38
461,66	1646,57
461,87	1681,79
462,07	1758,80
462,27	1717,84
462,48	1712,10
462,68	1613,39
462,89	1547,45
463,09	2395,71
463,29	1761,25
463,50	1760,43
463,70	1555,64
463,91	1699,40
464,11	1737,91
464,31	1685,48
464,52	1759,61
464,72	1823,92
464,93	1554,82
465,13	1694,90
465,33	1681,38
465,54	1611,75
465,74	1795,66
465,95	1619,94
466,15	1541,30
466,35	1606,43
466,56	1699,40
466,76	1709,64
466,96	1692,85
467,17	1794,84
467,37	1744,46
467,58	1730,94
467,78	1642,47
467,98	1632,64
468,19	1602,33
468,39	1681,79
468,59	1743,23
468,80	1796,07
469,00	1562,60
469,21	1649,84
469,41	1624,45
469,61	1687,94
469,82	1653,12
470,02	1784,60
470,22	1601,92
470,43	1699,40
470,63	1646,98
470,83	1551,95
471,04	1556,05
471,24	1647,39
471,45	1755,11
471,65	1813,68
471,85	1717,02
472,06	1654,76
472,26	1760,02
472,46	1645,75
472,67	1834,57
472,87	1605,61
473,07	1662,13
473,28	1637,97
473,48	1730,12
473,68	1843,58
473,89	1633,87
474,09	1729,30
474,29	1586,36
474,50	1739,14
474,70	1625,68
474,90	1847,68
475,11	1664,18
475,31	1769,04
475,51	1697,36
475,72	1764,94
475,92	1662,54
476,12	1659,67
476,33	1848,09
476,53	1694,49
476,73	1572,84
476,93	1695,72
477,14	1655,58
477,34	1708,01
477,54	1743,64
477,75	1659,26
477,95	1597,01
478,15	1750,19
478,36	1747,33
478,56	1590,45
478,76	1686,30
478,97	1644,93
479,17	1669,50
479,37	1651,48
479,57	1719,88
479,78	1631,82
479,98	1668,28
480,18	1718,25
480,39	1697,77
480,59	1706,78
480,79	1713,33
480,99	1655,17
481,20	1643,70
481,40	1870,61
481,60	1645,75
481,81	1805,08
482,01	1732,17
482,21	1671,14
482,41	1684,25
482,62	1682,61
482,82	1643,70
483,02	1789,52
483,23	1564,24
483,43	1758,80
483,63	1716,61
483,83	1633,46
484,04	1854,64
484,24	1724,80
484,44	1690,39
484,64	1674,42
484,85	1664,59
485,05	1682,20
485,25	1643,29
485,45	1565,06
485,66	1721,93
485,86	1621,99
486,06	1690,39
486,26	1696,95
486,47	1685,89
486,67	1583,49
486,87	1678,52
487,07	1746,51
487,28	1609,29
487,48	1684,66
487,68	1610,52
487,88	1684,66
488,09	1702,27
488,29	1743,64
488,49	1744,05
488,69	1677,70
488,90	1690,39
489,10	1673,60
489,30	1635,51
489,50	1679,74
489,71	1769,45
489,91	1692,85
490,11	1734,63
490,31	1701,04
490,52	1692,03
490,72	1612,16
490,92	1799,35
491,12	1683,84
491,32	1660,08
491,53	1694,08
491,73	1678,92
491,93	1587,99
492,13	1683,02
492,33	1628,95
492,54	1671,14
492,74	1762,07
492,94	1687,12
493,14	1671,55
493,35	1646,57
493,55	1626,91
493,75	1670,73
493,95	1688,76
494,15	1660,08
494,36	1708,01
494,56	1701,86
494,76	1642,88
494,96	1695,31
495,16	1662,54
495,37	1795,25
495,57	1565,88
495,77	1689,98
495,97	1665,41
496,17	1640,83
496,37	1744,05
496,58	1760,43
496,78	1621,99
496,98	1560,55
497,18	1763,30
497,38	1726,03
497,59	1863,24
497,79	1600,28
497,99	1791,97
498,19	1717,02
498,39	1853,41
498,59	1622,81
498,80	1778,46
499,00	1746,92
499,20	1658,04
499,40	1606,02
499,60	1690,80
499,80	1729,30
500,01	1628,54
500,21	1692,03
500,41	1719,06
500,61	1801,39
500,81	1677,70
501,01	1726,03
501,22	1668,28
501,42	1605,20
501,62	1725,21
501,82	1742,82
502,02	1652,30
502,22	1643,70
502,42	1718,25
502,63	1834,57
502,83	1736,68
503,03	1675,65
503,23	1617,90
503,43	1651,89
503,63	1835,80
503,83	1794,43
504,04	1666,64
504,24	1688,35
504,44	1708,83
504,64	1653,53
504,84	1794,02
505,04	1664,18
505,24	1606,84
505,44	1652,71
505,65	1774,77
505,85	1820,23
506,05	1657,63
506,25	1658,45
506,45	1748,56
506,65	1631,82
506,85	1553,59
507,05	1746,92
507,26	1719,88
507,46	1780,09
507,66	1622,81
507,86	1591,68
508,06	1674,42
508,26	1579,39
508,46	1692,44
508,66	1667,87
508,86	1764,53
509,06	1668,68
509,27	1726,85
509,47	1716,61
509,67	1583,90
509,87	1719,06
510,07	1756,75
510,27	1712,51
510,47	1772,31
510,67	1763,71
510,87	1760,43
511,07	1661,31
511,28	1719,88
511,48	1799,75
511,68	1714,15
511,88	1596,60
512,08	1643,29
512,28	1603,56
512,48	1765,76
512,68	1623,22
512,88	1675,65
513,08	1776,82
513,28	1837,03
513,48	1765,35
513,68	1743,64
513,89	1716,61
514,09	1769,04
514,29	1618,71
514,49	1683,02
514,69	1735,45
514,89	1682,20
515,09	1690,80
515,29	1726,44
515,49	1627,73
515,69	1794,43
515,89	1770,67
516,09	1631,82
516,29	1549,08
516,49	1570,79
516,69	1702,27
516,89	1640,01
517,09	1671,96
517,29	1706,78
517,50	1542,12
517,70	1594,14
517,90	1680,15
518,10	1653,53
518,30	1655,58
518,50	1722,34
518,70	1717,02
518,90	1689,98
519,10	1714,97
519,30	1558,50
519,50	1658,85
519,70	1739,54
519,90	1760,02
520,10	1674,42
520,30	1700,22
520,50	1605,20
520,70	1685,48
520,90	1876,76
521,10	1628,95
521,30	1663,36
521,50	1798,94
521,70	1753,06
521,90	1753,88
522,10	1763,71
522,30	1748,15
522,50	1634,28
522,70	1710,05
522,90	1668,68
523,10	1725,62
523,30	1709,64
523,50	1768,22
523,70	1698,59
523,90	1608,88
524,10	1683,84
524,30	1678,52
524,50	1698,59
524,70	1762,48
524,90	1692,44
525,10	1709,64
525,30	1640,83
525,50	1676,06
525,70	1558,91
525,90	1708,83
526,10	1722,34
526,30	1685,07
526,50	1751,01
526,70	1680,97
526,90	1628,14
527,10	1663,77
527,30	1668,28
527,50	1681,79
527,70	1673,60
527,90	1694,90
528,10	1731,35
528,30	1678,11
528,50	1734,22
528,70	1683,43
528,90	1672,37
529,10	1694,08
529,30	1625,27
529,50	1779,28
529,70	1715,79
529,90	1719,06
530,10	1757,16
530,29	1769,04
530,49	1726,85
530,69	1690,39
530,89	1668,68
531,09	1737,91
531,29	1788,70
531,49	1637,56
531,69	1739,54
531,89	1690,80
532,09	1734,22
532,29	1708,83
532,49	1631,82
532,69	1695,31
532,89	1597,42
533,09	1682,61
533,29	1566,70
533,49	1640,01
533,68	1674,42
533,88	1712,10
534,08	1624,86
534,28	1657,22
534,48	1632,64
534,68	1590,45
534,88	1687,12
535,08	1726,03
535,28	1837,85
535,48	1705,55
535,68	1729,30
535,88	1836,62
536,08	1664,18
536,27	1717,43
536,47	1725,21
536,67	1780,09
536,87	1646,98
537,07	1680,56
537,27	1832,11
537,47	1680,56
537,67	1599,05
537,87	1634,28
538,07	1666,23
538,27	1813,27
538,46	1828,84
538,66	1676,06
538,86	1630,18
539,06	1756,75
539,26	1663,36
539,46	1709,23
539,66	1696,95
539,86	1710,05
540,06	1669,91
540,25	1855,46
540,45	1612,16
540,65	1745,28
540,85	1688,35
541,05	1804,26
541,25	1724,39
541,45	1737,09
541,65	1771,08
541,85	1768,22
542,04	1739,14
542,24	1798,53
542,44	1755,52
542,64	1786,24
542,84	1696,13
543,04	1626,50
543,24	1781,73
543,43	1664,59
543,63	1873,89
543,83	1719,88
544,03	1708,01
544,23	1750,60
544,43	1706,78
544,63	1790,33
544,82	1714,15
545,02	1725,62
545,22	1771,49
545,42	1773,13
545,62	1755,11
545,82	1719,47
546,02	1692,44
546,21	1796,48
546,41	1780,50
546,61	1699,81
546,81	1704,73
547,01	1898,06
547,21	1774,77
547,40	1789,92
547,60	1830,47
547,80	1774,36
548,00	1641,65
548,20	1757,57
548,40	1818,19
548,59	1710,87
548,79	1897,24
548,99	1890,28
549,19	1797,71
549,39	1788,70
549,59	1772,31
549,78	1860,37
549,98	1755,11
550,18	1751,01
550,38	1877,99
550,58	1825,97
550,77	1887,00
550,97	1823,51
551,17	1885,77
551,37	1941,88
551,57	1814,91
551,76	1920,59
551,96	1812,45
552,16	1966,05
552,36	1900,11
552,56	1922,22
552,75	1880,44
552,95	1818,19
553,15	1955,40
553,35	2150,37
553,55	1803,85
553,74	1992,67
553,94	1841,94
554,14	1841,12
554,34	1934,92
554,54	1933,69
554,73	1799,35
554,93	1903,79
555,13	1986,94
555,33	1904,61
555,53	1796,07
555,72	2016,02
555,92	2160,20
556,12	2036,50
556,32	2025,03
556,51	2023,80
556,71	1986,53
556,91	2099,17
557,11	2038,55
557,30	2106,95
557,50	2126,61
557,70	2034,04
557,90	2017,25
558,10	2076,64
558,29	2083,60
558,49	2137,26
558,69	2175,35
558,89	2184,77
559,08	2208,12
559,28	2061,08
559,48	2108,59
559,68	2205,66
559,87	2271,20
560,07	2187,23
560,27	2236,79
560,47	2216,31
560,66	2205,66
560,86	2228,19
561,06	2273,65
561,25	2208,53
561,45	2279,39
561,65	2285,53
561,85	2309,70
562,04	2412,51
562,24	2409,23
562,44	2386,70
562,64	2507,94
562,83	2650,07
563,03	2548,49
563,23	2464,53
563,42	2527,60
563,62	2393,26
563,82	2490,74
564,02	2525,15
564,21	2627,13
564,41	2543,99
564,61	2632,87
564,80	2614,85
565,00	2786,06
565,20	2658,26
565,40	2922,45
565,59	2624,27
565,79	2769,26
565,99	2924,50
566,18	2903,20
566,38	2918,36
566,58	2899,51
566,78	2933,51
566,97	2996,59
567,17	3080,55
567,37	2997,82
567,56	3141,58
567,76	3221,05
567,96	3057,62
568,15	3131,34
568,35	3240,30
568,55	3313,20
568,74	3289,86
568,94	3351,30
569,14	3373,41
569,33	3360,72
569,53	3381,61
569,73	3518,82
569,92	3770,72
570,12	3670,37
570,32	3672,42
570,52	3672,42
570,71	3703,14
570,91	3937,42
571,11	3880,90
571,30	3920,63
571,50	4007,87
571,70	4158,61
571,89	4184,82
572,09	4281,48
572,28	4112,32
572,48	4143,86
572,68	4289,27
572,87	4452,69
573,07	4535,02
573,27	4729,99
573,46	4736,54
573,66	4695,17
573,86	4834,03
574,05	4833,62
574,25	4926,59
574,45	5058,89
574,64	5238,70
574,84	5527,88
575,04	5421,79
575,23	5531,56
575,43	5645,43
575,62	5738,41
575,82	5879,72
576,02	5799,85
576,21	6059,94
576,41	6064,04
576,61	6300,78
576,80	6335,19
577,00	6483,87
577,19	6519,09
577,39	6929,92
577,59	6940,16
577,78	7091,71
577,98	7149,87
578,18	7270,29
578,37	7469,76
578,57	7736,41
578,76	7883,45
578,96	7954,31
579,16	8198,43
579,35	8451,97
579,55	8489,24
579,74	8860,74
579,94	8764,08
580,14	9314,98
580,33	9342,01
580,53	9425,16
580,72	9729,08
580,92	9874,49
581,12	9949,03
581,31	10411,87
581,51	10572,43
581,70	10676,06
581,90	10977,93
582,10	11253,59
582,29	11577,99
582,49	11754,93
582,68	12038,37
582,88	12281,67
583,07	12792,02
583,27	12787,93
583,47	13283,53
583,66	13492,84
583,86	13607,52
584,05	13912,67
584,25	14227,65
584,44	14615,94
584,64	14875,22
584,84	14963,28
585,03	15433,49
585,23	15534,66
585,42	16013,07
585,62	16201,07
585,81	16649,99
586,01	17061,63
586,20	17449,92
586,40	17891,06
586,60	18189,65
586,79	18625,87
586,99	18937,98
587,18	19309,89
587,38	19676,47
587,57	20010,70
587,77	20595,19
587,96	21156,34
588,16	21343,52
588,35	21915,72
588,55	22502,26
588,75	23060,54
588,94	23253,87
589,14	23901,02
589,33	24263,10
589,53	25020,44
589,72	25225,65
589,92	25955,14
590,11	26583,86
590,31	27065,14
590,50	27775,37
590,70	28231,25
590,89	28947,63
591,09	29238,03
591,28	30113,33
591,48	30599,11
591,67	31099,22
591,87	31621,05
592,06	32505,77
592,26	32961,65
592,45	33718,99
592,65	34312,49
592,84	34935,89
593,04	35635,07
593,23	36202,35
593,43	37149,74
593,62	37490,53
593,82	37945,17
594,01	38529,66
594,21	39349,67
594,40	39945,63
594,60	40612,04
594,79	41325,14
594,99	41523,80
595,18	42376,98
595,38	42689,50
595,57	43568,08
595,77	44196,39
595,96	44761,63
596,16	45346,53
596,35	45570,17
596,55	45969,12
596,74	46543,37
596,94	46718,67
597,13	47063,14
597,33	47330,20
597,52	47600,53
597,72	47947,45
597,91	48846,92
598,11	48650,73
598,30	48636,39
598,50	48953,01
598,69	48663,01
598,88	48595,43
599,08	48534,40
599,27	48774,42
599,47	48792,86
599,66	48506,55
599,86	48221,88
600,05	47741,84
600,25	47667,29
600,44	47014,40
600,64	46734,24
600,83	46447,52
601,02	46182,92
601,22	45187,61
601,41	44556,02
601,61	44206,63
601,80	43506,23
602,00	43141,28
602,19	41930,93
602,38	41079,80
602,58	40092,27
602,77	39298,47
602,97	38442,83
603,16	37723,99
603,36	36432,54
603,55	36037,29
603,74	34238,35
603,94	33606,35
604,13	33086,16
604,33	32017,53
604,52	30760,49
604,72	30053,53
604,91	29049,21
605,10	28293,51
605,30	27294,92
605,49	26544,95
605,69	25798,26
605,88	24887,33
606,07	24204,53
606,27	23362,41
606,46	22458,43
606,66	21790,80
606,85	20749,20
607,04	20105,32
607,24	19467,58
607,43	19088,30
607,63	18227,33
607,82	17753,02
608,01	17331,55
608,21	16571,75
608,40	16382,52
608,60	15490,02
608,79	15269,25
608,98	14756,84
609,18	14425,48
609,37	13899,15
609,57	13428,53
609,76	13136,08
609,95	12523,33
610,15	12357,03
610,34	11993,31
610,53	11411,28
610,73	11217,54
610,92	10903,39
611,11	10592,50
611,31	10407,37
611,50	9876,53
611,70	9821,65
611,89	9389,12
612,08	9256,41
612,28	8920,95
612,47	8759,16
612,66	8415,51
612,86	8423,71
613,05	8058,35
613,24	7940,38
613,44	7724,53
613,63	7448,87
613,82	7417,33
614,02	7108,91
614,21	6784,51
614,41	6707,92
614,60	6748,47
614,79	6361,40
614,99	6415,47
615,18	6111,55
615,37	6094,75
615,57	5822,38
615,76	5648,30
615,95	5599,97
616,15	5395,17
616,34	5408,28
616,53	5346,43
616,73	5106,81
616,92	4927,00
617,11	4899,56
617,30	4759,07
617,50	4621,45
617,69	4702,96
617,88	4602,60
618,08	4459,25
618,27	4283,94
618,46	4196,29
618,66	4091,84
618,85	3976,75
619,04	3976,75
619,24	4057,44
619,43	3946,03
619,62	3712,15
619,82	3709,28
620,01	3579,85
620,20	3503,66
620,39	3486,05
620,59	3472,13
620,78	3472,95
620,97	3484,82
621,17	3352,52
621,36	3278,39
621,55	3150,60
621,74	3176,81
621,94	3035,91
622,13	3268,15
622,32	2994,54
622,52	2914,67
622,71	2999,86
622,90	3041,64
623,09	2863,47
623,29	2788,10
623,48	2852,41
623,67	2650,48
623,86	2852,41
624,06	2597,23
624,25	2673,42
624,44	2825,38
624,64	2712,33
624,83	2538,25
625,02	2564,47
625,21	2671,78
625,41	2516,13
625,60	2525,96
625,79	2300,69
625,98	2393,67
626,18	2479,68
626,37	2460,02
626,56	2386,70
626,75	2327,72
626,95	2351,48
627,14	2311,75
627,33	2341,24
627,52	2230,24
627,72	2284,71
627,91	2401,04
628,10	2188,05
628,29	2217,13
628,49	2231,06
628,68	2362,13
628,87	2194,19
629,06	2269,97
629,25	2135,62
629,45	2165,11
629,64	2333,05
629,83	2154,46
630,02	1992,26
630,22	2194,60
630,41	2031,99
630,60	2118,42
630,79	2050,43
630,98	1991,04
631,18	1916,90
631,37	1898,06
631,56	1978,75
631,75	2123,74
631,94	1967,69
632,14	1887,82
632,33	1846,04
632,52	1777,23
632,71	2589,04
632,90	1967,69
633,10	1904,61
633,29	1924,27
633,48	1881,67
633,67	1837,44
633,86	2001,28
634,06	1873,48
634,25	1925,09
634,44	2013,56
634,63	1909,12
634,82	1836,21
635,02	1873,89
635,21	1805,49
635,40	1777,64
635,59	1781,73
635,78	1927,96
635,97	1830,47
636,17	1833,34
636,36	1922,22
636,55	1889,05
636,74	1839,08
636,93	1852,18
637,12	1910,75
637,32	1824,33
637,51	1714,97
637,70	1923,04
637,89	1757,16
638,08	1711,28
638,27	1878,81
638,47	1818,19
638,66	1790,74
638,85	1728,90
639,04	1748,97
639,23	1857,51
639,42	1828,43
639,62	1889,87
639,81	1848,50
640,00	1812,45
640,19	1825,56
640,38	1750,19
640,57	1809,18
640,76	1835,39
640,95	1732,99
641,15	1654,35
641,34	1844,40
641,53	1755,11
641,72	1875,94
641,91	1840,71
642,10	1704,73
642,29	1807,54
642,49	1696,54
642,68	1690,80
642,87	1699,40
643,06	1755,93
643,25	1753,88
643,44	1684,66
643,63	1743,23
643,82	1714,56
644,01	1726,85
644,21	1723,98
644,40	1829,25
644,59	1697,36
644,78	1696,54
644,97	1955,40
645,16	1809,59
645,35	1724,39
645,54	1733,81
645,73	1736,68
645,92	1788,70
646,12	1714,97
646,31	1671,55
646,50	1684,25
646,69	1766,58
646,88	1650,66
647,07	1785,83
647,26	1689,16
647,45	1689,98
647,64	1753,06
647,83	1689,16
648,02	1769,85
648,22	1751,83
648,41	1651,89
648,60	1702,27
648,79	1714,56
648,98	1796,48
649,17	1710,46
649,36	1582,67
649,55	1712,92
649,74	1817,78
649,93	1680,97
650,12	1720,29
650,31	1812,45
650,50	1763,71
650,69	1815,32
650,88	1837,44
651,08	1651,07
651,27	1823,51
651,46	1809,59
651,65	1655,58
651,84	1636,33
652,03	1680,97
652,22	1665,41
652,41	1637,97
652,60	1866,52
652,79	1807,54
652,98	1714,97
653,17	1688,76
653,36	1752,24
653,55	1720,29
653,74	1755,52
653,93	1702,68
654,12	1617,49
654,31	1633,46
654,50	1700,63
654,69	1854,23
654,88	1764,53
655,07	1627,73
655,26	1655,17
655,45	1602,74
655,64	1593,32
655,83	1653,12
656,02	1794,02
656,21	1629,77
656,40	1623,22
656,59	1756,75
656,78	1653,53
656,97	1666,23
657,17	1783,78
657,36	1655,17
657,55	1872,25
657,74	1714,15
657,93	1727,67
658,12	1726,44
658,31	1651,89
658,50	1650,66
658,69	1597,83
658,87	1749,78
659,06	1695,72
659,25	1711,28
659,44	1639,19
659,63	1782,96
659,82	1716,20
660,01	1737,09
660,20	1690,80
660,39	1791,15
660,58	1632,23
660,77	1645,34
660,96	1737,09
661,15	1752,65
661,34	1680,97
661,53	1680,15
661,72	1692,03
661,91	1617,90
662,10	1664,59
662,29	1558,50
662,48	1610,11
662,67	1631,41
662,86	1581,03
663,05	1643,70
663,24	1768,22
663,43	1638,38
663,62	1873,07
663,81	1632,23
664,00	1812,86
664,19	1564,24
664,38	1683,84
664,57	1647,39
664,76	1691,21
664,94	1663,77
665,13	1679,33
665,32	1538,02
665,51	1657,22
665,70	1573,25
665,89	1707,19
666,08	1707,19
666,27	1609,70
666,46	1685,89
666,65	1711,69
666,84	1547,85
667,03	1636,33
667,22	1601,10
667,41	1774,77
667,60	1690,39
667,78	1671,55
667,97	1726,85
668,16	1746,51
668,35	1661,31
668,54	1684,66
668,73	1654,35
668,92	1623,63
669,11	1632,64
669,30	1647,80
669,49	1682,20
669,68	1791,56
669,86	1698,18
670,05	1612,57
670,24	1623,63
670,43	1689,98
670,62	1742,00
670,81	1646,16
671,00	1646,16
671,19	1776,00
671,38	1642,47
671,57	1685,07
671,75	1603,15
671,94	1736,68
672,13	1712,92
672,32	1603,97
672,51	1640,83
672,70	1724,80
672,89	1667,46
673,08	1609,29
673,26	1621,99
673,45	1634,28
673,64	1678,92
673,83	1608,47
674,02	1635,51
674,21	1839,08
674,40	1657,22
674,59	1729,71
674,77	1737,91
674,96	1744,05
675,15	1778,87
675,34	1678,92
675,53	1853,41
675,72	1690,80
675,91	1750,19
676,09	1837,44
676,28	1943,11
676,47	1655,17
676,66	1565,47
676,85	1807,54
677,04	1690,80
677,22	1720,29
677,41	1670,32
677,60	1696,95
677,79	1646,57
677,98	1653,12
678,17	1596,60
678,36	1695,72
678,54	1591,68
678,73	1719,47
678,92	1555,64
679,11	1748,15
679,30	1618,71
679,48	1688,76
679,67	1648,61
679,86	1654,35
680,05	1787,47
680,24	1567,92
680,43	1645,75
680,61	1615,85
680,80	1562,60
680,99	1602,33
681,18	1631,82
681,37	1721,11
681,55	1832,93
681,74	1796,48
681,93	1659,26
682,12	1585,13
682,31	1608,47
682,49	1669,09
682,68	1729,71
682,87	1651,07
683,06	1643,29
683,25	1726,03
683,43	1755,11
683,62	1651,48
683,81	1809,99
684,00	1831,70
684,19	1704,32
684,37	1626,09
684,56	1635,51
684,75	1841,12
684,94	1638,38
685,12	1829,25
685,31	1671,55
685,50	1691,62
685,69	1665,41
685,88	1689,16
686,06	1701,04
686,25	1656,40
686,44	1720,29
686,63	1648,61
686,81	1739,54
687,00	1661,72
687,19	1683,84
687,38	1705,14
687,56	1593,73
687,75	1751,42
687,94	1619,53
688,13	1616,26
688,31	1646,57
688,50	1637,15
688,69	1685,48
688,88	1737,50
689,06	1711,69
689,25	1714,97
689,44	1609,29
689,63	1674,01
689,81	1581,85
690,00	1642,06
690,19	1705,96
690,38	1689,98
690,56	1585,54
690,75	1817,78
690,94	1653,94
691,13	1640,01
691,31	1694,49
691,50	1656,40
691,69	1723,98
691,87	1586,77
692,06	1689,57
692,25	1677,29
692,44	1609,29
692,62	1646,98
692,81	1905,02
693,00	1696,95
693,18	1653,12
693,37	1755,11
693,56	1568,33
693,75	1595,37
693,93	1785,42
694,12	1840,71
694,31	1671,14
694,49	1579,39
694,68	1603,97
694,87	1659,67
695,05	1651,07
695,24	1642,88
695,43	1608,88
695,62	1555,23
695,80	1610,93
695,99	1774,77
696,18	1617,90
696,36	1797,71
696,55	1667,46
696,74	1567,92
696,92	1818,60
697,11	1706,37
697,30	1772,31
697,48	1676,88
697,67	1618,71
697,86	1654,35
698,04	1534,75
698,23	1635,10
698,42	1696,95
698,60	1663,77
698,79	1707,60
698,98	1732,58
699,16	1628,14
699,35	1634,28
699,54	1787,06
699,72	1641,24
699,91	1859,56
700,10	1668,28
700,28	1653,53
700,47	1892,32
700,66	1671,14
700,84	1637,15
701,03	1588,40
701,21	2355,98
701,40	1637,56
701,59	1745,69
701,77	1634,28
701,96	1639,60
702,15	1714,15
702,33	1635,92
702,52	1617,08
702,71	1728,49
702,89	1625,68
703,08	1707,19
703,26	1743,64
703,45	1826,79
703,64	1727,26
703,82	1778,05
704,01	1647,80
704,20	1726,44
704,38	1698,59
704,57	1635,10
704,75	1593,73
704,94	1638,78
705,13	1655,58
705,31	1736,27
705,50	1665,00
705,68	1699,40
705,87	1741,59
706,06	1718,66
706,24	1650,66
706,43	1583,49
706,61	1721,93
706,80	1566,70
706,99	1712,51
707,17	1830,47
707,36	1757,57
707,54	1699,81
707,73	1667,46
707,92	1706,37
708,10	1588,40
708,29	1645,34
708,47	1669,09
708,66	1705,96
708,84	1637,56
709,03	1673,60
709,22	1728,08
709,40	1727,67
709,59	1706,78
709,77	1806,72
709,96	1776,00
710,14	1594,96
710,33	1737,50
710,52	1758,80
710,70	1757,57
710,89	1665,00
711,07	1662,13
711,26	1709,64
711,44	1829,66
711,63	1683,02
711,81	1735,45
712,00	1608,07
712,19	1730,12
712,37	1785,01
712,56	1695,31
712,74	1653,12
712,93	1694,90
713,11	1650,25
713,30	1681,38
713,48	1688,76
713,67	1625,27
713,85	1646,57
714,04	1745,69
714,22	1787,06
714,41	1747,74
714,59	1668,28
714,78	1715,79
714,97	1701,86
715,15	1621,99
715,34	1744,87
715,52	1629,36
715,71	1714,97
715,89	1663,77
716,08	1649,43
716,26	1560,96
716,45	1641,65
716,63	1637,15
716,82	1686,30
717,00	1552,77
717,19	1713,33
717,37	1678,52
717,56	1710,46
717,74	1671,14
717,93	1716,20
718,11	1679,74
718,30	1582,26
718,48	1726,44
718,67	1819,83
718,85	1671,55
719,04	1650,25
719,22	1612,57
719,41	1744,46
719,59	1789,11
719,78	1653,12
719,96	1613,80
720,15	1708,83
720,33	1705,55
720,52	1689,16
720,70	1610,93
720,88	1759,21
721,07	1598,23
721,25	1642,06
721,44	1614,62
721,62	1702,68
721,81	1562,19
721,99	1556,46
722,18	1648,21
722,36	1666,64
722,55	1634,28
722,73	1635,10
722,92	1717,02
723,10	1587,99
723,28	1685,89
723,47	1747,33
723,65	1738,73
723,84	1670,32
724,02	1594,14
724,21	1695,72
724,39	1591,68
724,58	1662,54
724,76	1765,76
724,94	1608,07
725,13	1719,06
725,31	1659,26
725,50	1789,52
725,68	1689,16
725,87	1655,99
726,05	1684,66
726,23	1637,15
726,42	1679,74
726,60	1646,98
726,79	1614,21
726,97	1693,67
727,16	1781,32
727,34	1660,90
727,52	1634,28
727,71	1770,67
727,89	1565,47
728,08	1586,77
728,26	1711,69
728,44	1671,96
728,63	1828,43
728,81	1681,38
729,00	1650,25
729,18	1662,13
729,36	1625,27
729,55	1691,62
729,73	1716,61
729,92	1730,94
730,10	1629,36
730,28	1594,55
730,47	1631,00
730,65	1676,88
730,84	1786,24
731,02	1588,40
731,20	1782,55
731,39	1688,35
731,57	1744,05
731,75	1714,97
731,94	1654,76
732,12	1748,15
732,31	1633,87
732,49	1609,70
732,67	1685,89
732,86	1569,15
733,04	1680,56
733,22	1599,05
733,41	1581,03
733,59	1649,84
733,78	1678,11
733,96	1763,30
734,14	1572,43
734,33	1574,89
734,51	1689,57
734,69	1713,33
734,88	1644,93
735,06	1632,23
735,24	1689,16
735,43	1766,99
735,61	1568,74
735,79	1714,97
735,98	1657,63
736,16	1822,28
736,34	1658,04
736,53	1709,64
736,71	1721,52
736,89	1667,46
737,08	1696,13
737,26	1657,22
737,44	1622,81
737,63	1671,96
737,81	1575,30
737,99	1756,75
738,18	1675,24
738,36	1865,70
738,54	1717,02
738,73	1741,18
738,91	1801,39
739,09	1621,17
739,28	1633,05
739,46	1626,50
739,64	1653,12
739,82	1752,24
740,01	1618,30
740,19	1878,40
740,37	1671,55
740,56	1718,66
740,74	1606,43
740,92	1708,01
741,11	1565,06
741,29	1634,69
741,47	1804,67
741,65	1651,07
741,84	1657,22
742,02	1805,90
742,20	1667,46
742,39	1678,92
742,57	1693,26
742,75	1624,86
742,93	1628,54
743,12	1715,79
743,30	1615,03
743,48	1640,42
743,67	1706,78
743,85	1567,11
744,03	1822,69
744,21	1657,63
744,40	1643,29
744,58	1709,23
744,76	1674,01
744,94	1680,97
745,13	1649,84
745,31	1627,32
745,49	1655,17
745,67	1592,91
745,86	1729,30
746,04	1651,07
746,22	1674,83
746,40	1647,39
746,59	1621,58
746,77	1697,36
746,95	1773,54
747,13	1682,61
747,32	1714,15
747,50	1693,26
747,68	1651,48
747,86	1619,12
748,05	1778,05
748,23	1677,29
748,41	1684,66
748,59	1603,56
748,77	1599,46
748,96	1678,52
749,14	1569,97
749,32	1901,33
749,50	1736,27
749,69	1722,34
749,87	1739,95
750,05	1698,59
750,23	1603,15
750,41	1626,50
750,60	1756,75
750,78	1605,20
750,96	1675,24
751,14	1665,82
751,32	1637,15
751,51	1627,32
751,69	1558,50
751,87	1551,95
752,05	1724,80
752,23	1713,74
752,42	1638,78
752,60	1713,74
752,78	1632,64
752,96	1613,80
753,14	1714,56
753,33	1603,15
753,51	1653,53
753,69	1687,94
753,87	1679,74
754,05	1712,10
754,23	1671,96
754,42	1648,21
754,60	1642,06
754,78	1812,45
754,96	1567,52
755,14	1640,01
755,32	1726,85
755,51	1558,91
755,69	1666,64
755,87	1617,08
756,05	1588,40
756,23	1654,35
756,41	1684,25
756,60	1685,07
756,78	1708,83
756,96	1592,91
757,14	1720,29
757,32	1604,38
757,50	1701,45
757,68	1662,54
757,87	1601,10
758,05	1660,08
758,23	1666,64
758,41	1807,95
758,59	1792,38
758,77	1789,52
758,95	1757,16
759,14	1705,96
759,32	1798,94
759,50	1631,82
759,68	1617,08
759,86	1622,40
760,04	1656,81
760,22	1665,00
760,40	1948,44
760,59	1665,41
760,77	1775,18
760,95	1616,67
761,13	1630,18
761,31	1739,95
761,49	1724,80
761,67	1789,11
761,85	1640,42
762,03	1662,54
762,22	1798,94
762,40	1739,95
762,58	1634,69
762,76	1685,48
762,94	1672,78
763,12	1695,31
763,30	1787,88
763,48	1709,64
763,66	1613,39
763,84	1607,25
764,02	1690,80
764,21	1658,04
764,39	1892,73
764,57	1662,54
764,75	1663,36
764,93	1726,44
765,11	1664,59
765,29	1657,63
765,47	1673,19
765,65	1643,70
765,83	1706,37
766,01	1693,67
766,19	1727,26
766,37	1845,22
766,56	1738,32
766,74	1683,02
766,92	1612,16
767,10	1616,26
767,28	1658,45
767,46	1694,90
767,64	1640,01
767,82	1735,45
768,00	1651,89
768,18	1633,87
768,36	1742,00
768,54	1790,74
768,72	1764,53
768,90	1554,41
769,08	1580,21
769,26	1698,59
769,44	1649,43
769,62	1667,87
769,80	1749,78
769,98	1703,91
770,16	1605,20
770,34	1660,90
770,52	1578,16
770,71	1684,66
770,89	1615,85
771,07	1830,88
771,25	1648,21
771,43	1753,47
771,61	1773,54
771,79	1685,89
771,97	1653,53
772,15	1655,58
772,33	1658,85
772,51	1798,94
772,69	1607,25
772,87	1694,49
773,05	1685,89
773,23	1763,30
773,41	1705,55
773,59	1761,66
773,77	1671,55
773,95	1716,20
774,13	1725,21
774,31	1757,98
774,49	1734,63
774,67	1625,27
774,85	1664,18
775,03	1679,74
775,21	1736,68
775,39	1625,68
775,57	1630,18
775,75	1764,94
775,93	1636,74
776,10	1603,97
776,28	1728,08
776,46	1600,69
776,64	1647,39
776,82	1653,12
777,00	3529,06
777,18	1578,57
777,36	1737,91
777,54	1655,58
777,72	1572,02
777,90	1718,25
778,08	1577,35
778,26	1575,30
778,44	1616,67
778,62	1621,99
778,80	1833,75
778,98	1732,58
779,16	1667,46
779,34	1844,40
779,52	1622,40
779,70	1796,48
779,88	1615,85
780,05	1628,95
780,23	1620,35
780,41	1680,56
780,59	1666,64
780,77	1688,35
780,95	1649,02
781,13	1787,47
781,31	1616,26
781,49	1775,59
781,67	1682,20
781,85	1661,72
782,03	1702,27
782,21	1675,65
782,39	1663,77
782,56	1774,36
782,74	1773,54
782,92	1646,98
783,10	1864,06
783,28	1643,29
783,46	1601,92
783,64	1733,40
783,82	1664,18
784,00	1766,17
784,18	1653,53
784,35	1570,79
784,53	1626,09
784,71	1637,56
784,89	1666,23
785,07	1660,90
785,25	1739,54
785,43	1756,34
785,61	1612,16
785,79	1662,95
785,96	1785,01
786,14	1593,73
786,32	1746,92
786,50	1737,91
786,68	1545,40
786,86	1650,25
787,04	1727,67
787,22	1668,28
787,39	1661,72
787,57	1603,56
787,75	1678,52
787,93	1713,74
788,11	1584,72
788,29	1720,29
788,47	1694,08
788,65	1643,70
788,82	1687,53
789,00	1675,65
789,18	1756,75
789,36	1658,04
789,54	1636,74
789,72	1638,38
789,89	1639,60
790,07	1783,37
790,25	1789,11
790,43	1697,77
790,61	1712,92
790,79	1662,95
790,96	1662,95
791,14	1832,52
791,32	1549,08
791,50	1711,28
791,68	1771,90
791,86	1685,89
792,03	1685,48
792,21	1685,07
792,39	1621,58
792,57	1620,35
792,75	1583,49
792,93	1678,52
793,10	1681,38
793,28	1655,17
793,46	1605,20
793,64	1728,49
793,82	1837,44
793,99	1717,02
794,17	1561,78
794,35	1694,90
794,53	1679,74
794,71	1544,99
794,88	1617,49
795,06	1708,83
795,24	1632,64
795,42	1674,83
795,60	1737,91
795,77	1635,51
795,95	1669,09
796,13	1683,43
796,31	1683,02
796,49	1876,35
796,66	1662,13
796,84	1606,02
797,02	1776,41
797,20	1735,45
797,37	1733,40
797,55	1572,02
797,73	1599,05
797,91	1569,15
798,08	1720,29
798,26	1732,17
798,44	1620,35
798,62	1600,69
798,80	1606,02
798,97	1641,24
799,15	1649,84
799,33	1815,32
799,51	1776,00
799,68	1687,53
799,86	1731,76
800,04	1654,76
800,22	1685,48
800,39	1646,98
800,57	1811,63
800,75	1714,97
800,93	1760,84
801,10	1730,94
801,28	1803,85
801,46	1681,38
801,63	1730,12
801,81	1727,26
801,99	1658,85
802,17	1685,89
802,34	1801,80
802,52	1626,50
802,70	1744,87
802,88	1757,98
803,05	1781,32
803,23	1612,57
803,41	1626,50
803,58	1674,83
803,76	1728,49
803,94	1770,67
804,12	1730,53
804,29	1684,25
804,47	1808,77
804,65	1706,37
804,82	1670,32
805,00	1675,65
805,18	1673,19
805,35	1638,78
805,53	1739,54
805,71	1693,67
805,89	1738,73
806,06	1736,68
806,24	1589,63
806,42	1646,57
806,59	1620,35
806,77	1781,73
806,95	1653,53
807,12	1712,92
807,30	1748,15
807,48	1614,62
807,65	1579,80
807,83	1704,73
808,01	1720,70
808,18	1683,02
808,36	1720,70
808,54	1563,83
808,71	1672,37
808,89	1725,62
809,07	1709,23
809,24	1732,58
809,42	1828,43
809,60	1587,59
809,77	1698,59
809,95	1731,35
810,13	1639,60
810,30	1687,12
810,48	1840,30
810,66	1662,13
810,83	1708,83
811,01	1708,42
811,18	1669,91
811,36	1557,28
811,54	1642,06
811,71	1718,66
811,89	1739,95
812,07	1637,15
812,24	1814,50
812,42	1607,25
812,59	1673,60
812,77	1724,80
812,95	1715,79
813,12	1709,64
813,30	1633,05
813,48	1670,32
813,65	1708,42
813,83	1714,97
814,00	1747,33
814,18	1740,36
814,36	1677,70
814,53	1691,62
814,71	1646,16
814,88	1751,42
815,06	1622,81
815,24	1740,77
815,41	1622,40
815,59	1663,36
815,76	1642,88
815,94	1829,25
816,12	1660,49
816,29	1787,47
816,47	1702,27
816,64	1810,40
816,82	1601,51
817,00	1771,90
817,17	1670,32
817,35	1909,12
817,52	1665,82
817,70	1721,52
817,87	1742,82
818,05	1619,12
818,23	1669,91
818,40	1812,45
818,58	1681,38
818,75	1628,54
818,93	1651,48
819,10	1703,91
819,28	1641,24
819,46	1702,27
819,63	1611,34
819,81	1778,46
819,98	1554,00
820,16	1804,26
820,33	1554,82
820,51	1844,40
820,68	1702,68
820,86	1717,43
821,03	1812,45
821,21	1710,87
821,39	1864,47
821,56	1720,70
821,74	1628,54
821,91	1641,65
822,09	1657,63
822,26	1644,52
822,44	1582,67
822,61	1634,69
822,79	1761,25
822,96	1690,39
823,14	1645,34
823,31	1615,44
823,49	1739,14
823,66	1708,42
823,84	1680,97
824,01	1655,99
824,19	1602,33
824,36	1734,22
824,54	1734,63
824,71	1780,91
824,89	1739,95
825,06	1823,92
825,24	1674,01
825,41	1692,03
825,59	1682,61
825,76	1738,32
825,94	1642,06
826,11	1779,28
826,29	1644,52
826,46	1733,40
826,64	1771,49
826,81	1769,04
826,99	1665,41
827,16	1606,02
827,34	1580,21
827,51	1662,13
827,69	1875,94
827,86	1737,09
828,04	1703,50
828,21	1694,08
828,39	1739,95
828,56	1678,11
828,74	1749,37
828,91	1676,47
829,09	1941,88
829,26	1647,80
829,43	1762,89
829,61	1729,30
829,78	1661,72
829,96	1760,02
830,13	1622,81
830,31	1743,64
830,48	1703,50
830,66	1676,47
830,83	1648,61
831,01	1645,34
831,18	1660,90
831,35	1694,49
831,53	1725,62
831,70	1787,06
831,88	1884,13
832,05	1725,62
832,23	1610,11
832,40	1743,64
832,57	1754,70
832,75	1614,21
832,92	1778,05
833,10	1815,73
833,27	1712,92
833,45	1652,30
833,62	1660,49
833,79	1719,47
833,97	1630,18
834,14	1704,32
834,32	1733,40
834,49	1627,32
834,66	1660,08
834,84	1618,71
835,01	1772,72
835,19	1600,69
835,36	1620,35
835,53	1831,29
835,71	1699,81
835,88	1743,64
836,06	1730,53
836,23	1831,70
836,40	1592,09
836,58	1633,46
836,75	1680,15
836,93	1684,25
837,10	1669,50
837,27	1677,29
837,45	1697,77
837,62	1622,81
837,79	1630,59
837,97	1775,59
838,14	1646,16
838,32	1695,72
838,49	1630,18
838,66	1720,70
838,84	1766,99
839,01	1800,16
839,18	1759,61
839,36	1651,89
839,53	1621,99
839,70	1756,75
839,88	1665,00
840,05	1760,84
840,23	1649,43
840,40	1652,71
840,57	1678,52
840,75	1708,01
840,92	1862,01
841,09	1726,85
841,27	1746,92
841,44	1723,16
841,61	1772,31
841,79	1674,01
841,96	1698,99
842,13	1612,98
842,31	1671,96
842,48	1662,54
842,65	1620,76
842,83	1694,90
843,00	1716,61
843,17	1676,47
843,35	1772,31
843,52	1633,05
843,69	1739,54
843,86	1654,76
844,04	1649,84
844,21	1636,33
844,38	1752,24
844,56	1706,37
844,73	1736,27
844,90	1729,71
845,08	1714,97
845,25	1670,32
845,42	1766,58
845,60	1714,56
845,77	1655,17
845,94	1641,24
846,11	1685,48
846,29	1793,61
846,46	1665,41
846,63	1668,28
846,81	1743,23
846,98	1677,70
847,15	1701,86
847,32	1702,27
847,50	1589,22
847,67	1670,73
847,84	1711,28
848,01	1732,58
848,19	1656,81
848,36	1731,35
848,53	1637,56
848,71	1751,83
848,88	1658,04
849,05	1600,28
849,22	1639,19
849,40	1632,64
849,57	1809,59
849,74	1750,19
849,91	1671,14
850,09	1612,98
850,26	1682,20
850,43	1679,33
850,60	1641,24
850,78	1669,50
850,95	1701,45
851,12	1636,74
851,29	1752,65
851,47	1781,32
851,64	1683,43
851,81	1693,26
851,98	1668,28
852,15	1822,69
852,33	1603,97
852,50	1674,42
852,67	1718,66
852,84	1693,67
853,02	1776,00
853,19	1805,90
853,36	1648,21
853,53	1588,40
853,70	1832,52
853,88	1774,36
854,05	1755,93
854,22	1652,71
854,39	1726,85
854,56	1771,49
854,74	1581,44
854,91	1720,70
855,08	1568,33
855,25	1714,15
855,42	1634,69
855,60	1714,56
855,77	1779,28
855,94	1845,22
856,11	1637,56
856,28	1692,85
856,46	1792,79
856,63	1697,36
856,80	1645,34
856,97	1794,43
857,14	1777,64
857,31	1659,26
857,49	1715,79
857,66	1784,19
857,83	1625,68
858,00	1676,88
858,17	1684,25
858,34	1698,59
858,52	1610,52
858,69	1673,60
858,86	1703,91
859,03	1641,24
859,20	1780,50
859,37	1697,77
859,55	1611,75
859,72	1702,27
859,89	1647,80
860,06	1747,33
860,23	1789,92
860,40	1651,48
860,57	1747,74
860,75	1580,62
860,92	1806,72
861,09	1775,59
861,26	1772,72
861,43	1712,10
861,60	1684,66
861,77	1597,42
861,95	1611,34
862,12	1724,39
862,29	1635,51
862,46	1764,94
862,63	1755,93
862,80	1740,36
862,97	1824,74
863,14	1574,89
863,31	1806,31
863,49	1738,73
863,66	1754,70
863,83	1744,05
864,00	1827,61
864,17	1652,71
864,34	1678,92
864,51	1625,27
864,68	1725,21
864,85	1645,75
865,02	1669,91
865,20	1725,21
865,37	1668,68
865,54	1669,09
865,71	1727,26
865,88	1615,44
866,05	1649,84
866,22	1663,77
866,39	1703,50
866,56	1689,16
866,73	1669,09
866,90	1845,22
867,07	1767,40
867,25	1614,62
867,42	1798,12
867,59	1683,43
867,76	1785,01
867,93	1699,81
868,10	1736,27
868,27	1592,50
868,44	1750,19
868,61	1680,15
868,78	1737,09
868,95	1665,82
869,12	1746,92
869,29	1726,03
869,46	1744,87
869,63	1754,70
869,80	1637,15
869,97	1805,08
870,14	1724,39
870,32	1712,51
870,49	1710,05
870,66	1770,67
870,83	1678,92
871,00	1653,94
871,17	1690,39
871,34	1712,51
871,51	1677,29
871,68	1644,93
871,85	1725,21
872,02	1834,57
872,19	1674,83
872,36	1585,13
872,53	1764,53
872,70	1731,76
872,87	1664,18
873,04	1639,19
873,21	1595,78
873,38	1654,35
873,55	1814,91
873,72	1694,49
873,89	1665,82
874,06	1572,84
874,23	1594,55
874,40	1639,60
874,57	1660,90
874,74	1826,38
874,91	1619,53
875,08	1690,39
875,25	1730,94
875,42	1769,85
875,59	1722,75
875,76	1715,79
875,93	1733,81
876,10	1843,58
876,27	1666,64
876,44	1911,16
876,61	1773,95
876,78	1679,33
876,95	1757,16
877,12	1681,38
877,29	1702,68
877,46	1679,74
877,62	1677,70
877,79	1610,93
877,96	1735,04
878,13	1628,14
878,30	1693,26
878,47	1769,85
878,64	1726,44
878,81	1761,25
878,98	1685,48
879,15	1824,33
879,32	1772,72
879,49	1806,31
879,66	1738,32
879,83	1657,63
880,00	1801,39
880,17	1616,67
880,34	1730,12
880,51	1653,53
880,67	1825,15
880,84	1582,26
881,01	1683,43
881,18	1833,75
881,35	1640,42
881,52	1832,11
881,69	1671,14
881,86	1830,06
882,03	1713,33
882,20	1736,27
882,37	1711,28
882,54	1820,23
882,70	1701,45
882,87	1669,91
883,04	1764,94
883,21	1757,16
883,38	1674,42
883,55	1739,54
883,72	1684,66
883,89	1653,94
884,06	1623,22
884,23	1599,87
884,39	1617,08
884,56	1761,66
884,73	1786,65
884,90	1698,18
885,07	1822,69
885,24	1632,23
885,41	1811,22
885,58	1680,15
885,74	1621,99
885,91	1772,31
886,08	1744,87
886,25	1665,00
886,42	1674,01
886,59	1727,67
886,76	1610,52
886,93	1547,85
887,09	1805,90
887,26	1911,16
887,43	1699,81
887,60	1690,80
887,77	1719,47
887,94	1781,73
888,10	1922,22
888,27	1829,66
888,44	1735,86
888,61	1561,78
888,78	1644,93
888,95	1777,23
889,12	1620,76
889,28	1786,65
889,45	1655,58
889,62	1678,52
889,79	1726,44
889,96	1744,46
890,13	1706,78
890,29	1734,63
890,46	1829,25
890,63	1761,66
890,80	1724,80
890,97	1681,79
891,13	1683,02
891,30	1799,35
891,47	1847,27
891,64	1633,05
891,81	1653,12
891,98	1665,82
892,14	1714,97
892,31	1667,87
892,48	1682,20
892,65	1647,80
892,82	1670,73
892,98	1579,80
893,15	1738,73
893,32	1723,16
>>>>>End Processed Spectral Data<<<<<
