SpectraSuite Datei
++++++++++++++++++++++++++++++++++++
Datum: Mon Mar 09 11:52:34 CET 2020
Benutzer: Lichtquellen1
Dark-Spektrum vorhanden: Nein
Referenz-Spektrum vorhanden: Nein
Zahl der probierten Teilspektren: 1
Spektrometer: USB4F05832
Integrationszeit (usec): 200000 (USB4F05832)
Spektren Durchschnitt berechnet: 5 (USB4F05832)
Boxcar Glättung: 0 (USB4F05832)
Dunkelstromkorrektur: Nein (USB4F05832)
Puls/Lampe aktiviert: Nein (USB4F05832)
Correct for Detector Non-linearity: Nein (USB4F05832)
Streulichtkorrektur: Nein (USB4F05832)
Anzahl Pixel in verarbeitetem Spektrum: 3648
>>>>>Begin Processed Spectral Data<<<<<
177,54	1406,95
177,75	1406,95
177,97	1406,95
178,19	1343,88
178,41	1390,16
178,63	1728,49
178,85	1506,08
179,07	1582,26
179,29	1670,32
179,51	1509,35
179,73	1718,66
179,95	1626,91
180,17	1641,24
180,39	1748,97
180,61	1689,98
180,83	1777,64
181,05	1574,89
181,27	1676,47
181,49	1653,94
181,71	1650,66
181,92	1861,19
182,14	1672,37
182,36	1601,92
182,58	1762,07
182,80	1627,73
183,02	1863,24
183,24	1767,81
183,46	1744,05
183,68	1617,90
183,90	1731,76
184,12	1587,99
184,34	1763,71
184,56	1628,14
184,78	1572,43
185,00	1685,89
185,21	1802,62
185,43	1585,54
185,65	1733,40
185,87	1630,18
186,09	1811,63
186,31	1715,79
186,53	1720,70
186,75	1738,32
186,97	1808,77
187,19	1832,11
187,41	1591,68
187,63	1833,34
187,84	1574,07
188,06	1749,78
188,28	1664,59
188,50	1737,09
188,72	1857,10
188,94	1791,15
189,16	1611,34
189,38	1671,55
189,60	1694,08
189,82	1674,42
190,03	1714,56
190,25	1649,43
190,47	1709,23
190,69	1713,74
190,91	1570,79
191,13	1671,96
191,35	1843,58
191,57	1648,61
191,79	1684,66
192,01	1704,73
192,22	1789,11
192,44	1667,05
192,66	1735,45
192,88	1738,32
193,10	1683,43
193,32	1646,98
193,54	1857,10
193,76	1847,68
193,98	1633,05
194,19	1762,48
194,41	1676,47
194,63	1615,03
194,85	1681,38
195,07	1786,24
195,29	1576,94
195,51	1775,18
195,73	1647,80
195,94	1638,38
196,16	1670,73
196,38	1856,69
196,60	1659,26
196,82	1626,09
197,04	1670,32
197,26	1606,43
197,48	1631,82
197,69	1710,87
197,91	1623,22
198,13	1655,99
198,35	1672,37
198,57	1697,77
198,79	1782,55
199,01	1757,98
199,22	1674,01
199,44	1793,20
199,66	1701,45
199,88	1707,60
200,10	1772,31
200,32	1747,33
200,54	1755,93
200,75	1821,05
200,97	1627,32
201,19	1772,31
201,41	1762,89
201,63	1661,31
201,85	1632,64
202,06	1770,67
202,28	1680,56
202,50	1724,39
202,72	1567,11
202,94	1617,08
203,16	1642,88
203,38	1731,76
203,59	1667,46
203,81	1804,26
204,03	1551,95
204,25	1712,10
204,47	1802,62
204,69	1700,63
204,90	1618,71
205,12	1683,02
205,34	1728,08
205,56	1653,94
205,78	1597,83
206,00	1892,32
206,21	1775,59
206,43	1645,34
206,65	1721,52
206,87	1647,39
207,09	1729,71
207,30	1612,98
207,52	1774,36
207,74	1716,61
207,96	1634,69
208,18	1695,72
208,40	1646,57
208,61	1684,66
208,83	1709,23
209,05	1566,70
209,27	1580,21
209,49	1753,47
209,70	1783,37
209,92	1726,03
210,14	1605,20
210,36	1651,48
210,58	1664,59
210,79	1751,42
211,01	1589,22
211,23	1751,42
211,45	1783,37
211,67	1692,03
211,88	1546,63
212,10	1792,79
212,32	1608,88
212,54	1642,47
212,76	1712,51
212,97	1579,80
213,19	1589,22
213,41	1778,05
213,63	1600,28
213,85	1658,04
214,06	1599,46
214,28	1779,68
214,50	1666,23
214,72	1730,94
214,94	1751,83
215,15	1634,28
215,37	1671,55
215,59	1619,12
215,81	1701,86
216,02	1714,15
216,24	1737,09
216,46	1596,60
216,68	1701,45
216,90	1676,47
217,11	1792,79
217,33	1611,34
217,55	1803,44
217,77	1732,99
217,98	1779,28
218,20	1707,60
218,42	1804,67
218,64	1728,08
218,85	1814,91
219,07	1694,08
219,29	1711,28
219,51	1736,68
219,73	1673,60
219,94	1667,87
220,16	1819,83
220,38	1754,70
220,60	1673,19
220,81	1603,15
221,03	1585,13
221,25	1728,90
221,47	1537,21
221,68	1667,87
221,90	1721,93
222,12	1652,71
222,34	1730,12
222,55	1766,99
222,77	1851,36
222,99	1684,25
223,21	1688,35
223,42	1799,75
223,64	1715,38
223,86	1655,58
224,08	1715,79
224,29	1775,18
224,51	1737,91
224,73	1708,83
224,94	1717,02
225,16	1635,10
225,38	1701,04
225,60	1718,66
225,81	1655,99
226,03	1669,91
226,25	1580,62
226,47	1726,85
226,68	1715,79
226,90	1728,08
227,12	1715,79
227,33	1701,04
227,55	1667,87
227,77	1579,39
227,99	1825,56
228,20	1642,88
228,42	1690,80
228,64	1757,98
228,86	1714,15
229,07	1661,72
229,29	1607,66
229,51	1501,98
229,72	1847,68
229,94	1708,01
230,16	1761,25
230,38	1631,00
230,59	1666,64
230,81	1802,62
231,03	1724,39
231,24	1683,43
231,46	1680,97
231,68	1646,16
231,89	1672,78
232,11	1628,14
232,33	1816,96
232,55	1660,08
232,76	1752,24
232,98	1687,94
233,20	1627,73
233,41	1595,37
233,63	1665,41
233,85	1653,12
234,06	1661,72
234,28	1736,68
234,50	1599,05
234,71	1727,26
234,93	1825,15
235,15	1699,40
235,37	1555,64
235,58	1703,09
235,80	1624,45
236,02	1614,62
236,23	1710,05
236,45	1640,83
236,67	1770,26
236,88	1694,90
237,10	1778,05
237,32	1769,45
237,53	1705,14
237,75	1684,66
237,97	1562,60
238,18	1656,81
238,40	1704,73
238,62	1619,12
238,83	1680,97
239,05	1639,19
239,27	1668,28
239,48	1640,83
239,70	1655,17
239,92	1792,79
240,13	1775,59
240,35	1683,43
240,57	1720,29
240,78	1720,70
241,00	1591,68
241,22	1639,60
241,43	1846,45
241,65	1672,37
241,87	1819,01
242,08	1895,60
242,30	1644,11
242,52	1657,22
242,73	1794,43
242,95	1616,67
243,16	1704,73
243,38	1809,99
243,60	1728,90
243,81	1731,35
244,03	1772,72
244,25	1630,59
244,46	1660,08
244,68	1648,61
244,90	1700,22
245,11	1621,17
245,33	1679,33
245,55	1735,45
245,76	1708,01
245,98	1640,01
246,19	1838,26
246,41	1844,81
246,63	1734,22
246,84	1802,62
247,06	1689,16
247,28	1735,45
247,49	1698,59
247,71	1617,90
247,92	1729,30
248,14	1808,77
248,36	1756,75
248,57	1774,36
248,79	1797,30
249,01	1682,20
249,22	1723,57
249,44	1744,05
249,65	1678,92
249,87	1698,99
250,09	1733,81
250,30	1715,38
250,52	1724,80
250,73	1760,43
250,95	1613,39
251,17	1698,99
251,38	1658,45
251,60	1639,19
251,81	1799,75
252,03	1859,15
252,25	1578,16
252,46	1616,67
252,68	1815,32
252,89	1697,77
253,11	1722,75
253,33	1707,60
253,54	1552,36
253,76	1737,50
253,97	1750,60
254,19	1714,15
254,41	1597,83
254,62	1814,50
254,84	1754,29
255,05	1722,75
255,27	1752,65
255,49	1778,46
255,70	1762,48
255,92	1637,97
256,13	1643,70
256,35	1765,76
256,56	1775,18
256,78	1762,89
257,00	1762,07
257,21	1702,68
257,43	1640,83
257,64	1700,63
257,86	1787,88
258,08	1724,39
258,29	1819,01
258,51	1678,52
258,72	1771,49
258,94	1846,45
259,15	1711,69
259,37	1683,43
259,59	1583,90
259,80	1748,97
260,02	1710,46
260,23	1672,78
260,45	1605,61
260,66	1706,78
260,88	1694,08
261,09	1685,07
261,31	1688,76
261,53	1755,93
261,74	1789,92
261,96	1531,88
262,17	1617,90
262,39	1699,81
262,60	1693,26
262,82	1694,49
263,03	1670,32
263,25	1744,87
263,46	1663,77
263,68	1722,34
263,90	1710,46
264,11	1629,77
264,33	1799,35
264,54	1741,59
264,76	1732,17
264,97	1800,98
265,19	1647,39
265,40	1769,04
265,62	1664,59
265,83	1765,35
266,05	1683,43
266,26	1651,89
266,48	1854,23
266,70	1802,21
266,91	1581,03
267,13	1702,68
267,34	1670,73
267,56	1739,14
267,77	1683,43
267,99	1679,74
268,20	1826,38
268,42	1712,92
268,63	1593,73
268,85	1938,61
269,06	1775,18
269,28	1753,88
269,49	1716,61
269,71	1748,56
269,92	1674,42
270,14	1632,23
270,35	1644,11
270,57	1726,85
270,78	1710,46
271,00	1701,45
271,21	1898,06
271,43	1654,35
271,64	1696,13
271,86	1800,16
272,07	1610,52
272,29	1815,32
272,50	1664,59
272,72	1800,98
272,93	1776,00
273,15	1803,03
273,36	1741,59
273,58	1721,93
273,79	1729,30
274,01	1679,33
274,22	1627,73
274,44	1666,64
274,65	1730,12
274,87	1780,50
275,08	1766,17
275,30	1746,92
275,51	1896,83
275,73	1862,01
275,94	1662,54
276,16	1662,13
276,37	1684,66
276,59	1680,97
276,80	1715,79
277,02	1721,93
277,23	1654,76
277,45	1712,10
277,66	1533,11
277,88	1769,45
278,09	1875,53
278,30	1805,90
278,52	1632,23
278,73	1889,46
278,95	1704,32
279,16	1841,12
279,38	1760,84
279,59	1691,21
279,81	1647,39
280,02	1695,72
280,24	1641,24
280,45	1713,74
280,67	1818,60
280,88	1834,16
281,09	1646,16
281,31	1644,52
281,52	1713,74
281,74	1889,05
281,95	1735,86
282,17	1686,71
282,38	1766,99
282,60	1662,95
282,81	1787,47
283,02	1658,04
283,24	1639,19
283,45	1797,71
283,67	1630,18
283,88	1800,16
284,10	1678,92
284,31	1734,63
284,53	1674,83
284,74	1731,35
284,95	1701,45
285,17	1716,61
285,38	1622,81
285,60	1670,73
285,81	1669,91
286,03	1761,25
286,24	1731,35
286,45	1861,19
286,67	1723,16
286,88	1721,11
287,10	1783,78
287,31	1578,16
287,53	1738,73
287,74	1751,83
287,95	1647,80
288,17	1787,88
288,38	1783,37
288,60	1625,68
288,81	1684,66
289,02	1652,30
289,24	1846,04
289,45	1671,96
289,67	1765,35
289,88	1728,49
290,10	1746,51
290,31	1732,99
290,52	1672,78
290,74	1728,90
290,95	1791,15
291,17	1764,53
291,38	1613,80
291,59	1644,93
291,81	1647,80
292,02	1758,39
292,24	1738,73
292,45	1717,43
292,66	1728,08
292,88	1805,49
293,09	1721,11
293,31	1701,45
293,52	1667,05
293,73	1635,10
293,95	1748,15
294,16	1763,30
294,37	1721,11
294,59	1773,95
294,80	1852,18
295,02	1648,21
295,23	1594,55
295,44	1761,25
295,66	1632,23
295,87	1756,75
296,09	1707,60
296,30	1680,15
296,51	1613,39
296,73	1675,24
296,94	1634,69
297,15	1642,88
297,37	1655,17
297,58	1641,24
297,79	1722,75
298,01	1725,21
298,22	1813,68
298,44	1614,62
298,65	1706,78
298,86	1799,75
299,08	1604,38
299,29	1714,97
299,50	1646,16
299,72	1671,14
299,93	1739,95
300,14	1762,89
300,36	1585,13
300,57	1616,67
300,79	1700,63
301,00	1777,23
301,21	1563,83
301,43	1649,02
301,64	1660,49
301,85	1662,95
302,07	1796,07
302,28	1655,99
302,49	1847,27
302,71	1669,50
302,92	1789,11
303,13	1804,67
303,35	1694,08
303,56	1737,91
303,77	1591,68
303,99	1710,87
304,20	1696,54
304,41	1643,70
304,63	1667,05
304,84	1764,53
305,05	1773,95
305,27	1749,37
305,48	1783,37
305,69	1699,81
305,91	1779,68
306,12	1713,74
306,33	1730,12
306,55	1705,14
306,76	1664,18
306,97	1672,78
307,19	1713,33
307,40	1777,64
307,61	1820,23
307,82	1641,24
308,04	1806,72
308,25	1770,26
308,46	1714,15
308,68	1696,13
308,89	1812,86
309,10	1704,32
309,32	1679,33
309,53	1626,91
309,74	1747,33
309,96	1657,63
310,17	1681,38
310,38	1660,08
310,59	1773,13
310,81	1719,06
311,02	1703,50
311,23	1727,26
311,45	1671,55
311,66	1687,94
311,87	1674,01
312,09	1786,24
312,30	1697,36
312,51	1746,10
312,72	1751,01
312,94	1823,51
313,15	1703,09
313,36	1752,24
313,58	1655,17
313,79	1804,67
314,00	1717,43
314,21	1595,37
314,43	1744,05
314,64	1696,54
314,85	1634,28
315,06	1641,24
315,28	1830,88
315,49	1764,53
315,70	1714,97
315,92	1830,47
316,13	1855,87
316,34	1778,46
316,55	1763,30
316,77	1637,56
316,98	1828,02
317,19	1674,01
317,40	1576,12
317,62	1587,18
317,83	1818,60
318,04	1658,85
318,25	1678,92
318,47	1665,82
318,68	1692,85
318,89	1798,12
319,11	1691,21
319,32	1708,42
319,53	1774,36
319,74	1749,78
319,96	1784,60
320,17	1688,35
320,38	1586,36
320,59	1815,73
320,81	1739,95
321,02	1753,88
321,23	1658,85
321,44	1762,48
321,65	1709,64
321,87	1706,37
322,08	1805,08
322,29	1681,79
322,50	1629,77
322,72	1708,83
322,93	1711,28
323,14	1647,80
323,35	1653,53
323,57	1798,53
323,78	1722,34
323,99	1746,10
324,20	1794,02
324,41	1604,38
324,63	1739,95
324,84	1687,94
325,05	1740,36
325,26	1752,24
325,48	1703,09
325,69	1728,49
325,90	1731,35
326,11	1689,16
326,32	1727,26
326,54	1773,13
326,75	1694,08
326,96	1689,98
327,17	1760,84
327,39	1812,86
327,60	1746,51
327,81	1710,46
328,02	1671,14
328,23	1744,87
328,45	1759,61
328,66	1656,81
328,87	1758,80
329,08	1763,71
329,29	1696,13
329,51	1657,63
329,72	1666,23
329,93	1724,39
330,14	1643,70
330,35	1697,77
330,56	1704,73
330,78	1770,67
330,99	1697,77
331,20	1765,35
331,41	1815,73
331,62	1646,57
331,84	1685,07
332,05	1667,46
332,26	1771,49
332,47	1734,63
332,68	1653,94
332,90	1683,02
333,11	1615,03
333,32	1897,65
333,53	1726,03
333,74	1592,09
333,95	1773,54
334,17	1757,98
334,38	1733,40
334,59	1623,63
334,80	1678,92
335,01	1809,99
335,22	1733,40
335,44	1698,99
335,65	1648,61
335,86	1792,38
336,07	1728,08
336,28	1642,47
336,49	1668,28
336,71	1575,30
336,92	1834,57
337,13	1697,36
337,34	1627,32
337,55	1863,65
337,76	1679,33
337,97	1761,66
338,19	1751,01
338,40	1648,61
338,61	1773,13
338,82	1694,90
339,03	1708,42
339,24	1624,45
339,45	1639,19
339,67	1755,52
339,88	1718,25
340,09	1710,87
340,30	1674,01
340,51	1856,69
340,72	1701,86
340,93	1604,38
341,15	1726,85
341,36	1850,13
341,57	1652,71
341,78	1655,17
341,99	1760,43
342,20	1805,49
342,41	1686,30
342,62	1894,37
342,84	1585,95
343,05	1833,34
343,26	1626,09
343,47	1753,88
343,68	1601,10
343,89	1734,22
344,10	1702,27
344,31	1685,07
344,53	1572,02
344,74	1692,03
344,95	1665,41
345,16	1690,80
345,37	1744,46
345,58	1722,34
345,79	1607,25
346,00	1611,75
346,21	1651,89
346,42	1669,50
346,64	1660,49
346,85	1781,32
347,06	1722,34
347,27	1656,40
347,48	1796,07
347,69	1776,00
347,90	1703,91
348,11	1767,81
348,32	1600,69
348,53	1677,70
348,75	1608,88
348,96	1688,35
349,17	1610,11
349,38	1687,94
349,59	1682,61
349,80	1626,50
350,01	1837,44
350,22	1806,31
350,43	1665,00
350,64	1760,43
350,85	1787,06
351,06	1602,74
351,28	1710,87
351,49	1608,88
351,70	1705,14
351,91	1596,19
352,12	1653,94
352,33	1704,73
352,54	1574,48
352,75	1616,26
352,96	1632,23
353,17	1756,75
353,38	1722,75
353,59	1776,41
353,80	1882,90
354,01	1741,59
354,22	1640,01
354,44	1660,08
354,65	1819,83
354,86	1666,64
355,07	1617,08
355,28	1557,69
355,49	1633,46
355,70	1646,16
355,91	1770,26
356,12	1621,17
356,33	1637,56
356,54	1719,06
356,75	1712,51
356,96	1704,73
357,17	1768,22
357,38	1628,54
357,59	1682,20
357,80	1785,01
358,01	1705,55
358,22	1771,49
358,43	1739,14
358,64	1703,09
358,85	1609,29
359,07	1790,74
359,28	1650,66
359,49	1705,14
359,70	1606,02
359,91	1689,16
360,12	1623,63
360,33	1831,29
360,54	1631,82
360,75	1629,36
360,96	1655,58
361,17	1551,54
361,38	1609,29
361,59	1849,73
361,80	1614,21
362,01	1755,93
362,22	1659,26
362,43	1603,97
362,64	1658,85
362,85	1672,78
363,06	1853,41
363,27	1774,36
363,48	1787,47
363,69	1864,47
363,90	1610,11
364,11	1735,86
364,32	1644,93
364,53	1704,73
364,74	1744,05
364,95	1711,28
365,16	1683,02
365,37	1806,31
365,58	1665,82
365,79	1622,40
366,00	1746,51
366,21	1622,81
366,42	1725,62
366,63	1807,54
366,84	1666,64
367,05	1704,32
367,26	1739,95
367,47	1757,16
367,68	1687,94
367,89	1717,84
368,10	1711,69
368,31	1609,70
368,52	1763,71
368,73	1679,33
368,94	1629,36
369,15	1650,25
369,36	1656,40
369,57	1637,56
369,78	1605,61
369,99	1637,97
370,20	1723,16
370,40	1550,31
370,61	1578,57
370,82	1661,31
371,03	1655,58
371,24	1728,49
371,45	1671,96
371,66	1556,87
371,87	1701,04
372,08	1713,33
372,29	1687,94
372,50	1751,01
372,71	1702,27
372,92	1717,02
373,13	1621,58
373,34	1655,58
373,55	1600,69
373,76	1777,64
373,97	1696,54
374,18	1681,79
374,39	1658,04
374,60	1848,91
374,81	1678,92
375,01	1584,72
375,22	1728,08
375,43	1627,32
375,64	1608,47
375,85	1615,44
376,06	1650,66
376,27	1668,68
376,48	1696,13
376,69	1749,37
376,90	1714,97
377,11	1739,95
377,32	1692,85
377,53	1679,33
377,74	1693,26
377,94	1639,19
378,15	1702,27
378,36	1780,91
378,57	1543,76
378,78	1830,88
378,99	1594,14
379,20	1882,90
379,41	1703,09
379,62	1651,89
379,83	1574,48
380,04	1678,92
380,25	1672,78
380,45	1683,02
380,66	1744,05
380,87	1667,87
381,08	1710,46
381,29	1616,26
381,50	1716,61
381,71	1666,23
381,92	1636,74
382,13	1560,14
382,34	1722,75
382,55	1657,22
382,75	1687,12
382,96	1778,46
383,17	1600,69
383,38	1774,77
383,59	1798,53
383,80	1570,38
384,01	1605,61
384,22	1821,05
384,43	1734,22
384,63	1714,97
384,84	1648,21
385,05	1748,56
385,26	1704,73
385,47	1748,56
385,68	1651,07
385,89	1759,61
386,10	1651,48
386,30	1698,59
386,51	1572,84
386,72	1653,53
386,93	1582,67
387,14	1705,14
387,35	1736,27
387,56	1796,07
387,77	1594,96
387,97	1609,29
388,18	1652,71
388,39	1659,26
388,60	1678,11
388,81	1740,77
389,02	1682,20
389,23	1665,41
389,43	1674,83
389,64	1703,91
389,85	1656,40
390,06	1780,91
390,27	1591,68
390,48	1791,56
390,69	1652,30
390,89	1650,66
391,10	1669,50
391,31	1642,47
391,52	1652,71
391,73	1712,92
391,94	1630,59
392,14	1567,92
392,35	1578,98
392,56	1652,71
392,77	1677,70
392,98	1670,32
393,19	1770,67
393,39	1795,25
393,60	1700,22
393,81	1776,00
394,02	1772,31
394,23	1595,78
394,44	1568,74
394,64	1673,19
394,85	1714,15
395,06	1704,73
395,27	1715,79
395,48	1742,41
395,69	1753,47
395,89	1669,09
396,10	1654,35
396,31	1865,70
396,52	1535,16
396,73	1670,73
396,93	1648,21
397,14	1779,68
397,35	1748,56
397,56	1745,69
397,77	1623,22
397,97	1660,49
398,18	1721,52
398,39	1718,66
398,60	1687,94
398,81	1614,21
399,01	1610,11
399,22	1702,27
399,43	1841,53
399,64	1789,92
399,85	1772,31
400,05	1604,79
400,26	1529,01
400,47	1654,76
400,68	1593,32
400,89	1895,19
401,09	1583,90
401,30	1684,66
401,51	1741,59
401,72	1689,98
401,93	1866,52
402,13	1664,18
402,34	1762,89
402,55	1664,18
402,76	1655,58
402,96	1639,19
403,17	1694,08
403,38	1780,09
403,59	1730,53
403,80	1728,90
404,00	1733,40
404,21	1732,99
404,42	1615,85
404,63	1631,41
404,83	1659,26
405,04	1692,03
405,25	1761,66
405,46	1819,83
405,66	1658,85
405,87	1696,95
406,08	1678,11
406,29	1750,60
406,49	1619,53
406,70	1753,47
406,91	1543,35
407,12	1629,77
407,32	1809,59
407,53	1691,62
407,74	1703,50
407,95	1808,77
408,15	1672,78
408,36	1621,17
408,57	1712,51
408,78	1683,84
408,98	1738,73
409,19	1734,22
409,40	1644,52
409,61	1641,24
409,81	1704,73
410,02	1641,65
410,23	1675,65
410,44	1731,35
410,64	1549,49
410,85	1654,35
411,06	1646,57
411,26	1768,63
411,47	1676,06
411,68	1794,02
411,89	1658,04
412,09	1662,54
412,30	1714,97
412,51	1692,85
412,72	1657,22
412,92	1642,47
413,13	1665,00
413,34	1637,15
413,54	1634,28
413,75	1714,97
413,96	1656,81
414,17	1631,00
414,37	1741,18
414,58	1819,01
414,79	1699,40
414,99	1729,30
415,20	1710,87
415,41	1585,13
415,61	1674,83
415,82	1712,92
416,03	1685,07
416,24	1629,36
416,44	1770,26
416,65	1717,02
416,86	1739,14
417,06	1584,72
417,27	1727,67
417,48	1665,41
417,68	1631,00
417,89	1725,21
418,10	1621,17
418,30	1772,31
418,51	1756,75
418,72	1667,87
418,92	1662,95
419,13	1738,32
419,34	1630,59
419,55	1723,16
419,75	2527,19
419,96	1671,55
420,17	1801,39
420,37	1662,13
420,58	1786,65
420,79	1635,92
420,99	1694,90
421,20	1812,45
421,41	1674,83
421,61	1685,07
421,82	1639,19
422,03	1703,91
422,23	1631,00
422,44	1665,82
422,65	1833,75
422,85	1572,43
423,06	1722,75
423,26	1722,34
423,47	1744,05
423,68	1787,47
423,88	1689,57
424,09	1670,32
424,30	1712,92
424,50	1590,04
424,71	1640,42
424,92	1744,46
425,12	1912,39
425,33	1782,55
425,54	1626,91
425,74	1631,00
425,95	1748,56
426,15	1550,31
426,36	1632,64
426,57	1722,34
426,77	1749,78
426,98	1604,79
427,19	1605,61
427,39	1583,90
427,60	1821,87
427,81	1665,41
428,01	1712,51
428,22	1654,35
428,42	1667,05
428,63	1614,62
428,84	1628,95
429,04	1662,13
429,25	1658,45
429,45	1526,15
429,66	1760,02
429,87	1658,04
430,07	1877,17
430,28	1762,48
430,49	1761,25
430,69	1678,52
430,90	1688,35
431,10	1621,99
431,31	1815,73
431,52	1705,14
431,72	1687,94
431,93	1694,49
432,13	1746,92
432,34	1706,37
432,55	1671,14
432,75	1600,69
432,96	1669,09
433,16	1718,66
433,37	1737,50
433,58	1639,60
433,78	1677,70
433,99	1621,58
434,19	1526,97
434,40	1606,02
434,60	1625,27
434,81	1649,43
435,02	1595,78
435,22	1610,11
435,43	1725,21
435,63	1680,56
435,84	1653,53
436,05	1725,21
436,25	1660,08
436,46	1754,29
436,66	1692,85
436,87	1721,52
437,07	1594,55
437,28	1702,27
437,48	1676,06
437,69	1628,14
437,90	1683,43
438,10	1675,24
438,31	1759,61
438,51	1611,34
438,72	1732,17
438,92	1573,66
439,13	1722,34
439,34	1687,12
439,54	1786,24
439,75	1651,07
439,95	1701,45
440,16	1586,77
440,36	1857,92
440,57	1740,36
440,77	1755,93
440,98	1639,60
441,18	1597,01
441,39	1711,69
441,60	1649,02
441,80	1674,42
442,01	1624,86
442,21	1688,35
442,42	1699,81
442,62	1679,74
442,83	1565,47
443,03	1669,91
443,24	1729,71
443,44	1717,02
443,65	1616,67
443,85	1657,22
444,06	1684,25
444,26	1732,99
444,47	1615,03
444,67	1616,67
444,88	1701,04
445,09	1701,86
445,29	1636,33
445,50	1830,06
445,70	1572,43
445,91	1690,39
446,11	1565,88
446,32	1715,79
446,52	1690,80
446,73	1650,66
446,93	1673,60
447,14	1668,68
447,34	1646,57
447,55	1544,17
447,75	1694,90
447,96	1693,26
448,16	1767,81
448,37	1648,61
448,57	1644,52
448,78	1677,70
448,98	1675,65
449,19	1752,65
449,39	1668,68
449,60	1705,55
449,80	1630,18
450,01	1670,32
450,21	1647,80
450,42	1707,60
450,62	1631,82
450,83	1628,95
451,03	1708,01
451,23	1664,59
451,44	1790,33
451,64	1633,05
451,85	1753,88
452,05	1703,09
452,26	1707,60
452,46	1672,37
452,67	1753,47
452,87	1597,83
453,08	1672,78
453,28	1659,26
453,49	1664,59
453,69	1742,82
453,90	1712,92
454,10	1764,53
454,31	1752,65
454,51	1671,96
454,71	1648,21
454,92	1688,76
455,12	1589,22
455,33	1575,30
455,53	1793,61
455,74	1591,68
455,94	1732,17
456,15	1767,40
456,35	1736,68
456,55	1583,90
456,76	1689,57
456,96	1665,82
457,17	1525,74
457,37	1772,31
457,58	1692,03
457,78	1615,85
457,99	1669,91
458,19	1652,30
458,39	1640,01
458,60	1699,40
458,80	1589,22
459,01	1621,58
459,21	1580,21
459,42	1649,02
459,62	1785,83
459,82	1644,52
460,03	1633,05
460,23	1698,99
460,44	1651,07
460,64	1635,10
460,85	1696,54
461,05	1610,52
461,25	1572,84
461,46	1621,58
461,66	1655,17
461,87	1641,65
462,07	1765,35
462,27	1750,60
462,48	1717,02
462,68	1613,39
462,89	1556,46
463,09	2329,77
463,29	1727,26
463,50	1724,80
463,70	1567,92
463,91	1692,44
464,11	1701,04
464,31	1724,80
464,52	1776,00
464,72	1842,35
464,93	1567,92
465,13	1727,26
465,33	1674,01
465,54	1621,58
465,74	1805,08
465,95	1617,49
466,15	1546,22
466,35	1606,02
466,56	1689,57
466,76	1697,36
466,96	1646,16
467,17	1765,35
467,37	1737,09
467,58	1708,01
467,78	1673,60
467,98	1672,37
468,19	1571,61
468,39	1701,45
468,59	1762,89
468,80	1795,25
469,00	1605,61
469,21	1608,88
469,41	1666,64
469,61	1687,94
469,82	1692,44
470,02	1766,58
470,22	1578,57
470,43	1687,94
470,63	1627,73
470,83	1555,64
471,04	1558,50
471,24	1649,43
471,45	1772,72
471,65	1830,47
471,85	1721,93
472,06	1680,15
472,26	1776,82
472,46	1647,39
472,67	1854,64
472,87	1601,10
473,07	1700,63
473,28	1624,86
473,48	1701,45
473,68	1823,92
473,89	1670,32
474,09	1755,93
474,29	1602,33
474,50	1720,29
474,70	1600,69
474,90	1832,11
475,11	1658,85
475,31	1763,30
475,51	1658,04
475,72	1753,88
475,92	1667,87
476,12	1623,22
476,33	1864,47
476,53	1651,07
476,73	1610,52
476,93	1650,66
477,14	1651,48
477,34	1746,10
477,54	1764,53
477,75	1615,85
477,95	1634,69
478,15	1724,80
478,36	1745,69
478,56	1596,19
478,76	1724,39
478,97	1662,54
479,17	1671,96
479,37	1637,56
479,57	1698,99
479,78	1678,11
479,98	1663,77
480,18	1753,88
480,39	1689,16
480,59	1710,05
480,79	1715,79
480,99	1645,34
481,20	1644,93
481,40	1857,92
481,60	1658,45
481,81	1795,25
482,01	1712,92
482,21	1655,58
482,41	1694,08
482,62	1697,36
482,82	1633,46
483,02	1799,35
483,23	1551,54
483,43	1769,85
483,63	1677,29
483,83	1656,81
484,04	1826,79
484,24	1711,69
484,44	1646,57
484,64	1706,78
484,85	1725,62
485,05	1638,38
485,25	1680,97
485,45	1603,56
485,66	1746,51
485,86	1614,21
486,06	1666,64
486,26	1692,44
486,47	1667,87
486,67	1574,48
486,87	1705,96
487,07	1760,84
487,28	1617,08
487,48	1649,02
487,68	1590,45
487,88	1661,31
488,09	1702,68
488,29	1769,85
488,49	1746,92
488,69	1662,95
488,90	1717,02
489,10	1647,39
489,30	1621,58
489,50	1692,03
489,71	1766,58
489,91	1695,72
490,11	1762,07
490,31	1677,29
490,52	1681,79
490,72	1665,00
490,92	1788,29
491,12	1708,83
491,32	1628,54
491,53	1700,63
491,73	1674,01
491,93	1584,72
492,13	1651,89
492,33	1653,94
492,54	1704,32
492,74	1746,92
492,94	1692,44
493,14	1673,60
493,35	1658,85
493,55	1651,07
493,75	1687,94
493,95	1717,43
494,15	1652,71
494,36	1720,29
494,56	1690,80
494,76	1634,28
494,96	1659,67
495,16	1645,75
495,37	1787,06
495,57	1549,08
495,77	1696,95
495,97	1674,01
496,17	1652,71
496,37	1705,96
496,58	1716,61
496,78	1650,25
496,98	1578,16
497,18	1789,52
497,38	1735,86
497,59	1841,94
497,79	1606,84
497,99	1793,20
498,19	1646,16
498,39	1856,69
498,59	1626,09
498,80	1796,07
499,00	1705,55
499,20	1611,75
499,40	1548,26
499,60	1731,35
499,80	1712,92
500,01	1629,77
500,21	1679,33
500,41	1739,14
500,61	1729,30
500,81	1668,28
501,01	1727,67
501,22	1669,91
501,42	1608,88
501,62	1727,26
501,82	1761,25
502,02	1670,73
502,22	1662,13
502,42	1725,21
502,63	1841,94
502,83	1753,88
503,03	1676,06
503,23	1621,99
503,43	1665,00
503,63	1818,60
503,83	1809,59
504,04	1626,91
504,24	1687,94
504,44	1680,97
504,64	1705,14
504,84	1828,02
505,04	1635,10
505,24	1582,26
505,44	1631,82
505,65	1774,36
505,85	1832,93
506,05	1668,68
506,25	1650,25
506,45	1744,05
506,65	1610,11
506,85	1538,84
507,05	1761,66
507,26	1720,29
507,46	1822,69
507,66	1631,00
507,86	1585,54
508,06	1681,38
508,26	1576,12
508,46	1674,01
508,66	1660,90
508,86	1773,54
509,06	1649,84
509,27	1728,49
509,47	1730,94
509,67	1584,72
509,87	1709,23
510,07	1763,30
510,27	1673,19
510,47	1787,88
510,67	1719,88
510,87	1771,08
511,07	1647,39
511,28	1685,48
511,48	1819,01
511,68	1681,38
511,88	1549,08
512,08	1608,07
512,28	1620,76
512,48	1782,55
512,68	1626,91
512,88	1621,17
513,08	1787,06
513,28	1842,35
513,48	1725,21
513,68	1732,99
513,89	1752,65
514,09	1777,23
514,29	1605,20
514,49	1695,72
514,69	1701,86
514,89	1698,99
515,09	1678,11
515,29	1721,11
515,49	1620,35
515,69	1777,23
515,89	1747,74
516,09	1668,28
516,29	1535,16
516,49	1549,49
516,69	1658,04
516,89	1614,62
517,09	1647,80
517,29	1681,38
517,50	1521,23
517,70	1570,38
517,90	1682,20
518,10	1664,59
518,30	1625,68
518,50	1752,24
518,70	1709,64
518,90	1679,33
519,10	1714,15
519,30	1585,13
519,50	1631,82
519,70	1727,67
519,90	1721,93
520,10	1691,21
520,30	1675,24
520,50	1590,04
520,70	1670,73
520,90	1868,98
521,10	1625,27
521,30	1660,08
521,50	1807,95
521,70	1762,48
521,90	1721,93
522,10	1792,38
522,30	1713,74
522,50	1658,45
522,70	1729,71
522,90	1651,89
523,10	1738,73
523,30	1674,42
523,50	1747,33
523,70	1671,55
523,90	1595,78
524,10	1644,93
524,30	1663,36
524,50	1683,43
524,70	1755,11
524,90	1684,25
525,10	1715,79
525,30	1635,51
525,50	1646,98
525,70	1565,06
525,90	1698,99
526,10	1740,77
526,30	1670,73
526,50	1734,63
526,70	1694,90
526,90	1656,81
527,10	1655,17
527,30	1651,48
527,50	1778,05
527,70	1704,73
527,90	1698,18
528,10	1739,14
528,30	1726,03
528,50	1704,73
528,70	1676,88
528,90	1649,02
529,10	1690,39
529,30	1627,73
529,50	1791,56
529,70	1716,20
529,90	1740,36
530,10	1748,97
530,29	1779,28
530,49	1730,12
530,69	1666,64
530,89	1697,77
531,09	1687,53
531,29	1781,73
531,49	1615,03
531,69	1751,83
531,89	1705,14
532,09	1694,90
532,29	1759,61
532,49	1677,29
532,69	1652,30
532,89	1605,20
533,09	1662,54
533,29	1600,69
533,49	1636,74
533,68	1654,35
533,88	1744,05
534,08	1646,98
534,28	1635,10
534,48	1654,76
534,68	1595,37
534,88	1715,79
535,08	1635,51
535,28	1784,60
535,48	1704,73
535,68	1704,73
535,88	1789,92
536,08	1669,91
536,27	1670,32
536,47	1758,80
536,67	1748,56
536,87	1655,17
537,07	1717,84
537,27	1749,78
537,47	1704,32
537,67	1553,18
537,87	1608,07
538,07	1624,04
538,27	1785,01
538,46	1780,91
538,66	1639,19
538,86	1594,96
539,06	1713,74
539,26	1641,24
539,46	1719,06
539,66	1683,43
539,86	1664,18
540,06	1647,80
540,25	1819,01
540,45	1600,69
540,65	1729,30
540,85	1649,43
541,05	1780,50
541,25	1735,04
541,45	1697,36
541,65	1756,34
541,85	1724,39
542,04	1726,85
542,24	1747,74
542,44	1742,00
542,64	1753,06
542,84	1688,35
543,04	1586,77
543,24	1759,61
543,43	1611,75
543,63	1863,65
543,83	1707,19
544,03	1727,67
544,23	1743,23
544,43	1699,81
544,63	1758,80
544,82	1719,06
545,02	1706,78
545,22	1746,10
545,42	1691,62
545,62	1739,14
545,82	1621,17
546,02	1658,04
546,21	1744,46
546,41	1733,81
546,61	1668,28
546,81	1622,81
547,01	1830,88
547,21	1744,46
547,40	1714,56
547,60	1767,40
547,80	1723,98
548,00	1591,68
548,20	1687,12
548,40	1783,78
548,59	1658,45
548,79	1827,20
548,99	1820,23
549,19	1722,34
549,39	1737,09
549,59	1690,39
549,78	1791,15
549,98	1683,84
550,18	1710,87
550,38	1804,26
550,58	1723,16
550,77	1744,87
550,97	1725,21
551,17	1773,54
551,37	1800,57
551,57	1714,97
551,76	1818,19
551,96	1719,88
552,16	1841,94
552,36	1768,63
552,56	1791,97
552,75	1757,16
552,95	1668,68
553,15	1838,26
553,35	2003,32
553,55	1670,32
553,74	1788,70
553,94	1711,28
554,14	1655,17
554,34	1804,67
554,54	1798,94
554,73	1620,35
554,93	1770,26
555,13	1781,32
555,33	1722,75
555,53	1671,96
555,72	1805,08
555,92	2003,32
556,12	1801,80
556,32	1823,51
556,51	1788,70
556,71	1755,52
556,91	1840,30
557,11	1802,62
557,30	1809,99
557,50	1848,50
557,70	1728,90
557,90	1722,75
558,10	1758,39
558,29	1832,11
558,49	1835,80
558,69	1806,31
558,89	1782,96
559,08	1849,73
559,28	1716,61
559,48	1712,51
559,68	1848,50
559,87	1890,28
560,07	1785,01
560,27	1802,62
560,47	1821,46
560,66	1783,37
560,86	1814,09
561,06	1848,50
561,25	1700,22
561,45	1815,73
561,65	1810,40
561,85	1762,89
562,04	1873,48
562,24	1864,06
562,44	1825,15
562,64	1927,14
562,83	2046,74
563,03	2010,29
563,23	1835,80
563,42	1845,22
563,62	1738,73
563,82	1806,31
564,02	1858,74
564,21	1874,30
564,41	1797,30
564,61	1918,13
564,80	1880,44
565,00	1936,15
565,20	1876,35
565,40	2049,20
565,59	1783,37
565,79	1936,56
565,99	1986,94
566,18	1970,97
566,38	1978,34
566,58	1934,10
566,78	1855,05
566,97	1991,85
567,17	2100,40
567,37	1872,66
567,56	1991,44
567,76	2023,80
567,96	1920,59
568,15	1979,57
568,35	2016,43
568,55	2004,96
568,74	1994,72
568,94	1984,89
569,14	1975,06
569,33	1939,84
569,53	1955,81
569,73	1956,22
569,92	2181,09
570,12	2018,07
570,32	2000,46
570,52	1998,82
570,71	2018,89
570,91	2208,12
571,11	2065,99
571,30	2107,36
571,50	2058,21
571,70	2236,79
571,89	2210,99
572,09	2246,21
572,28	2070,91
572,48	2015,61
572,68	2065,58
572,87	2165,93
573,07	2196,24
573,27	2269,56
573,46	2297,41
573,66	2189,28
573,86	2233,92
574,05	2248,67
574,25	2201,57
574,45	2231,06
574,64	2312,16
574,84	2538,25
575,04	2358,44
575,23	2427,66
575,43	2371,55
575,62	2398,17
575,82	2449,37
576,02	2278,57
576,21	2368,27
576,41	2339,19
576,61	2486,64
576,80	2479,68
577,00	2400,63
577,19	2444,05
577,39	2562,01
577,59	2596,41
577,78	2651,71
577,98	2616,48
578,18	2585,36
578,37	2633,69
578,57	2711,51
578,76	2695,95
578,96	2708,23
579,16	2677,10
579,35	2779,09
579,55	2688,16
579,74	2861,42
579,94	2709,87
580,14	3028,95
580,33	2870,02
580,53	2835,62
580,72	2943,34
580,92	2992,90
581,12	2940,88
581,31	3045,74
581,51	3113,32
581,70	3050,65
581,90	3065,40
582,10	3214,90
582,29	3193,60
582,49	3157,15
582,68	3182,54
582,88	3247,67
583,07	3574,12
583,27	3440,18
583,47	3588,45
583,66	3451,65
583,86	3465,16
584,05	3488,10
584,25	3524,55
584,44	3658,08
584,64	3798,98
584,84	3580,67
585,03	3734,27
585,23	3694,95
585,42	3757,61
585,62	3760,07
585,81	3823,15
586,01	3983,30
586,20	3997,23
586,40	4053,75
586,60	4212,26
586,79	4153,28
586,99	4317,12
587,18	4285,58
587,38	4212,67
587,57	4211,44
587,77	4415,01
587,96	4605,06
588,16	4535,84
588,35	4656,67
588,55	4791,43
588,75	4883,59
588,94	4900,79
589,14	4818,46
589,33	4868,84
589,53	5123,20
589,72	4957,31
589,92	5103,54
590,11	5241,57
590,31	5298,91
590,50	5533,61
590,70	5579,90
590,89	5607,34
591,09	5663,45
591,28	5895,69
591,48	5729,81
591,67	5991,54
591,87	5909,21
592,06	6129,16
592,26	6150,87
592,45	6322,90
592,65	6406,05
592,84	6366,32
593,04	6522,78
593,23	6646,07
593,43	6719,80
593,62	6928,28
593,82	6986,03
594,01	7074,09
594,21	7324,36
594,40	7423,89
594,60	7408,73
594,79	7647,12
594,99	7798,67
595,18	7856,42
595,38	8173,44
595,57	8192,28
595,77	8390,53
595,96	8589,18
596,16	8611,71
596,35	8790,70
596,55	8990,17
596,74	9268,70
596,94	9274,43
597,13	9466,94
597,33	9584,90
597,52	9790,11
597,72	9931,83
597,91	10374,19
598,11	10306,20
598,30	10548,68
598,50	10873,89
598,69	10955,40
598,88	11168,80
599,08	11337,15
599,27	11606,25
599,47	11690,62
599,66	12187,05
599,86	12330,82
600,05	12561,83
600,25	12973,88
600,44	13084,06
600,64	13430,17
600,83	13727,12
601,02	14092,89
601,22	14140,00
601,41	14466,03
601,61	14814,60
601,80	15102,13
602,00	15462,16
602,19	15639,52
602,38	16014,71
602,58	16249,81
602,77	16636,06
602,97	16867,07
603,16	17620,31
603,36	17703,87
603,55	18341,61
603,74	18457,52
603,94	19050,21
604,13	19605,61
604,33	19869,80
604,52	20019,71
604,72	20464,12
604,91	20876,99
605,10	21447,15
605,30	21663,00
605,49	22430,99
605,69	22902,02
605,88	22951,59
606,07	23755,62
606,27	24205,35
606,46	24557,60
606,66	24940,16
606,85	25235,48
607,04	25835,54
607,24	26290,18
607,43	27106,10
607,63	27265,84
607,82	27904,80
608,01	28564,25
608,21	28772,73
608,40	29626,33
608,60	29811,87
608,79	30332,87
608,98	30744,11
609,18	31786,11
609,37	31957,73
609,57	32226,84
609,76	32959,60
609,95	33345,44
610,15	34082,71
610,34	34748,30
610,53	34856,43
610,73	35346,71
610,92	36017,22
611,11	36473,50
611,31	37137,87
611,50	37522,88
611,70	38183,97
611,89	38615,68
612,08	39234,99
612,28	39570,03
612,47	40333,52
612,66	40832,81
612,86	41558,61
613,05	42053,81
613,24	42564,57
613,44	42840,64
613,63	43237,95
613,82	44056,31
614,02	44353,68
614,21	44449,52
614,41	45098,73
614,60	45957,24
614,79	45406,74
614,99	45956,83
615,18	46256,24
615,37	45971,16
615,57	46653,55
615,76	46089,54
615,95	45861,80
616,15	45927,34
616,34	46241,91
616,53	45807,74
616,73	45889,25
616,92	45203,18
617,11	44646,13
617,30	43934,66
617,50	43518,93
617,69	43085,99
617,88	42581,78
618,08	41374,29
618,27	40801,68
618,46	40054,17
618,66	38921,65
618,85	38174,96
619,04	37383,21
619,24	36917,09
619,43	35907,86
619,62	34714,30
619,82	33560,88
620,01	32649,13
620,20	31618,18
620,39	30505,31
620,59	29664,83
620,78	28762,49
620,97	27928,56
621,17	27065,14
621,36	26148,47
621,55	25038,06
621,74	24173,40
621,94	23140,00
622,13	22788,57
622,32	21676,11
622,52	20871,26
622,71	20236,80
622,90	19397,54
623,09	18747,11
623,29	17970,11
623,48	17429,03
623,67	16760,99
623,86	16267,83
624,06	15468,72
624,25	15088,61
624,44	14720,39
624,64	14140,81
624,83	13442,87
625,02	12975,93
625,21	12861,65
625,41	12329,59
625,60	11962,60
625,79	11459,20
625,98	11128,66
626,18	11022,58
626,37	10675,65
626,56	10133,35
626,75	10039,14
626,95	9627,09
627,14	9364,54
627,33	9199,89
627,52	8889,41
627,72	8700,18
627,91	8623,59
628,10	8289,77
628,29	8095,62
628,49	7853,14
628,68	7779,82
628,87	7500,48
629,06	7482,46
629,25	7079,01
629,45	6923,36
629,64	6995,04
629,83	6745,60
630,02	6492,06
630,22	6414,65
630,41	6257,36
630,60	6198,38
630,79	6005,87
630,98	5834,66
631,18	5622,90
631,37	5407,87
631,56	5526,24
631,75	5488,15
631,94	5212,08
632,14	5093,71
632,33	4912,67
632,52	4808,63
632,71	5433,67
632,90	4721,39
633,10	4655,03
633,29	4503,48
633,48	4393,30
633,67	4285,17
633,86	4276,16
634,06	4170,07
634,25	4087,75
634,44	4107,00
634,63	3912,03
634,82	3789,15
635,02	3743,28
635,21	3637,19
635,40	3597,05
635,59	3490,56
635,78	3576,57
635,97	3438,95
636,17	3368,91
636,36	3398,81
636,55	3332,86
636,74	3307,06
636,93	3234,56
637,12	3180,50
637,32	3114,55
637,51	2954,81
637,70	3096,94
637,89	2930,64
638,08	2849,54
638,27	2966,69
638,47	2811,45
638,66	2789,33
638,85	2664,82
639,04	2696,77
639,23	2745,92
639,42	2690,62
639,62	2720,93
639,81	2667,68
640,00	2627,54
640,19	2583,31
640,38	2500,57
640,57	2508,35
640,76	2593,96
640,95	2421,52
641,15	2333,46
641,34	2470,26
641,53	2358,44
641,72	2472,72
641,91	2444,46
642,10	2251,54
642,29	2383,84
642,49	2227,37
642,68	2214,67
642,87	2238,43
643,06	2222,46
643,25	2244,57
643,44	2125,79
643,63	2231,88
643,82	2138,49
644,01	2115,55
644,21	2154,46
644,40	2227,37
644,59	2109,82
644,78	2110,23
644,97	2344,11
645,16	2129,07
645,35	2042,23
645,54	2054,93
645,73	2027,49
645,92	2119,24
646,12	2063,94
646,31	1990,22
646,50	2011,51
646,69	2064,76
646,88	1908,30
647,07	2059,85
647,26	1958,27
647,45	1967,69
647,64	2033,22
647,83	1939,02
648,02	1999,64
648,22	2014,79
648,41	1876,76
648,60	1931,23
648,79	1927,96
648,98	2043,05
649,17	1920,18
649,36	1748,56
649,55	1890,28
649,74	1972,60
649,93	1827,20
650,12	1896,83
650,31	1952,94
650,50	1890,28
650,69	1938,20
650,88	2013,97
651,08	1777,23
651,27	1931,64
651,46	1969,74
651,65	1769,85
651,84	1763,71
652,03	1802,62
652,22	1733,81
652,41	1784,19
652,60	2019,30
652,79	1919,36
652,98	1804,26
653,17	1801,80
653,36	1809,18
653,55	1823,92
653,74	1858,74
653,93	1761,25
654,12	1748,15
654,31	1689,57
654,50	1794,84
654,69	1871,84
654,88	1864,88
655,07	1701,86
655,26	1709,64
655,45	1697,77
655,64	1663,77
655,83	1736,27
656,02	1795,25
656,21	1684,25
656,40	1679,33
656,59	1802,62
656,78	1717,84
656,97	1718,25
657,17	1808,77
657,36	1687,94
657,55	1935,74
657,74	1745,28
657,93	1788,29
658,12	1763,71
658,31	1750,19
658,50	1696,54
658,69	1628,14
658,87	1778,87
659,06	1722,34
659,25	1732,17
659,44	1627,32
659,63	1834,98
659,82	1801,80
660,01	1778,46
660,20	1723,98
660,39	1842,76
660,58	1680,15
660,77	1727,26
660,96	1738,73
661,15	1743,64
661,34	1723,98
661,53	1719,06
661,72	1742,82
661,91	1625,27
662,10	1688,35
662,29	1561,78
662,48	1684,66
662,67	1637,15
662,86	1658,45
663,05	1650,25
663,24	1791,97
663,43	1677,70
663,62	1840,71
663,81	1659,26
664,00	1841,53
664,19	1623,22
664,38	1703,50
664,57	1644,11
664,76	1702,68
664,94	1628,14
665,13	1675,24
665,32	1592,50
665,51	1638,37
665,70	1633,46
665,89	1718,25
666,08	1683,02
666,27	1599,46
666,46	1685,48
666,65	1722,75
666,84	1570,79
667,03	1645,75
667,22	1630,18
667,41	1792,38
667,60	1688,35
667,78	1708,01
667,97	1725,62
668,16	1771,08
668,35	1637,15
668,54	1707,19
668,73	1692,03
668,92	1665,00
669,11	1610,93
669,30	1680,97
669,49	1621,99
669,68	1800,16
669,86	1645,75
670,05	1651,89
670,24	1589,63
670,43	1723,57
670,62	1740,36
670,81	1679,33
671,00	1675,24
671,19	1820,23
671,38	1671,96
671,57	1696,54
671,75	1632,64
671,94	1706,78
672,13	1764,53
672,32	1617,49
672,51	1617,08
672,70	1761,66
672,89	1642,06
673,08	1571,61
673,26	1646,16
673,45	1632,64
673,64	1654,76
673,83	1648,61
674,02	1581,85
674,21	1851,77
674,40	1679,74
674,59	1765,76
674,77	1741,18
674,96	1761,66
675,15	1776,00
675,34	1642,88
675,53	1828,02
675,72	1686,71
675,91	1781,73
676,09	1794,02
676,28	1935,33
676,47	1696,54
676,66	1573,25
676,85	1787,47
677,04	1715,38
677,22	1746,10
677,41	1662,95
677,60	1718,66
677,79	1640,42
677,98	1676,47
678,17	1592,09
678,36	1684,25
678,54	1586,77
678,73	1739,54
678,92	1567,92
679,11	1766,58
679,30	1620,35
679,48	1660,49
679,67	1692,44
679,86	1644,52
680,05	1769,04
680,24	1591,27
680,43	1617,49
680,61	1617,08
680,80	1562,60
680,99	1594,55
681,18	1633,87
681,37	1697,77
681,55	1864,06
681,74	1755,52
681,93	1673,60
682,12	1573,66
682,31	1642,88
682,49	1654,76
682,68	1696,13
682,87	1637,15
683,06	1571,20
683,25	1726,03
683,43	1757,98
683,62	1641,65
683,81	1783,78
684,00	1824,33
684,19	1708,01
684,37	1646,16
684,56	1621,17
684,75	1817,78
684,94	1638,38
685,12	1834,98
685,31	1680,56
685,50	1684,66
685,69	1653,94
685,88	1669,50
686,06	1669,50
686,25	1677,29
686,44	1703,09
686,63	1646,98
686,81	1779,28
687,00	1641,65
687,19	1684,25
687,38	1717,02
687,56	1618,30
687,75	1714,56
687,94	1631,82
688,13	1608,47
688,31	1649,84
688,50	1642,06
688,69	1663,36
688,88	1744,87
689,06	1769,85
689,25	1682,20
689,44	1633,87
689,63	1668,68
689,81	1604,38
690,00	1606,84
690,19	1698,99
690,38	1688,35
690,56	1631,00
690,75	1812,45
690,94	1648,61
691,13	1652,71
691,31	1717,02
691,50	1621,99
691,69	1725,62
691,87	1582,26
692,06	1701,04
692,25	1704,73
692,44	1586,36
692,62	1642,47
692,81	1927,55
693,00	1684,66
693,18	1671,55
693,37	1785,01
693,56	1593,73
693,75	1601,51
693,93	1751,01
694,12	1811,63
694,31	1696,13
694,49	1567,11
694,68	1625,68
694,87	1653,94
695,05	1698,59
695,24	1642,88
695,43	1601,92
695,62	1584,31
695,80	1638,37
695,99	1779,28
696,18	1633,05
696,36	1826,79
696,55	1644,93
696,74	1569,15
696,92	1798,53
697,11	1726,03
697,30	1790,33
697,48	1645,75
697,67	1642,47
697,86	1672,78
698,04	1540,07
698,23	1651,89
698,42	1711,28
698,60	1639,19
698,79	1657,63
698,98	1701,04
699,16	1598,64
699,35	1646,57
699,54	1764,12
699,72	1652,30
699,91	1904,61
700,10	1662,95
700,28	1680,56
700,47	1894,78
700,66	1664,18
700,84	1668,28
701,03	1586,36
701,21	2382,20
701,40	1601,10
701,59	1727,67
701,77	1637,97
701,96	1640,42
702,15	1686,30
702,33	1637,56
702,52	1635,10
702,71	1750,19
702,89	1634,69
703,08	1704,73
703,26	1737,09
703,45	1794,02
703,64	1757,98
703,82	1786,24
704,01	1641,24
704,20	1742,41
704,38	1707,60
704,57	1640,01
704,75	1614,62
704,94	1654,76
705,13	1701,86
705,31	1751,83
705,50	1673,19
705,68	1707,19
705,87	1732,99
706,06	1716,61
706,24	1672,37
706,43	1577,35
706,61	1744,87
706,80	1592,09
706,99	1700,63
707,17	1826,79
707,36	1730,94
707,54	1676,06
707,73	1646,57
707,92	1708,83
708,10	1596,60
708,29	1635,10
708,47	1670,32
708,66	1689,57
708,84	1635,51
709,03	1691,21
709,22	1703,09
709,40	1707,19
709,59	1723,57
709,77	1804,67
709,96	1769,45
710,14	1612,98
710,33	1723,98
710,52	1721,11
710,70	1773,13
710,89	1692,85
711,07	1692,03
711,26	1669,91
711,44	1804,67
711,63	1716,61
711,81	1741,59
712,00	1603,97
712,19	1676,88
712,37	1806,72
712,56	1704,32
712,74	1695,31
712,93	1710,87
713,11	1653,12
713,30	1680,56
713,48	1715,38
713,67	1633,05
713,85	1602,33
714,04	1736,68
714,22	1786,24
714,41	1739,14
714,59	1701,45
714,78	1697,36
714,97	1706,37
715,15	1678,11
715,34	1768,63
715,52	1618,30
715,71	1715,79
715,89	1615,03
716,08	1714,15
716,26	1587,99
716,45	1609,29
716,63	1668,28
716,82	1680,97
717,00	1567,92
717,19	1719,06
717,37	1656,81
717,56	1674,01
717,74	1660,49
717,93	1697,77
718,11	1699,81
718,30	1569,56
718,48	1686,71
718,67	1777,23
718,85	1671,55
719,04	1669,50
719,22	1594,96
719,41	1762,48
719,59	1793,20
719,78	1658,04
719,96	1634,28
720,15	1729,71
720,33	1717,02
720,52	1718,25
720,70	1571,61
720,88	1771,90
721,07	1583,49
721,25	1642,88
721,44	1578,98
721,62	1673,19
721,81	1553,18
721,99	1527,78
722,18	1626,50
722,36	1683,84
722,55	1613,39
722,73	1635,51
722,92	1704,32
723,10	1647,80
723,28	1684,25
723,47	1729,71
723,65	1765,35
723,84	1710,87
724,02	1585,13
724,21	1707,19
724,39	1608,47
724,58	1617,08
724,76	1744,05
724,94	1642,47
725,13	1744,46
725,31	1696,54
725,50	1787,06
725,68	1726,44
725,87	1663,77
726,05	1675,65
726,23	1664,18
726,42	1655,17
726,60	1672,37
726,79	1620,76
726,97	1703,09
727,16	1838,67
727,34	1670,73
727,52	1644,93
727,71	1768,63
727,89	1581,85
728,08	1632,64
728,26	1694,08
728,44	1676,47
728,63	1824,33
728,81	1662,95
729,00	1665,82
729,18	1692,44
729,36	1678,92
729,55	1739,14
729,73	1713,33
729,92	1701,86
730,10	1595,37
730,28	1603,15
730,47	1662,54
730,65	1654,35
730,84	1808,36
731,02	1569,56
731,20	1778,05
731,39	1717,84
731,57	1720,70
731,75	1729,71
731,94	1654,35
732,12	1761,66
732,31	1659,67
732,49	1606,84
732,67	1673,19
732,86	1576,53
733,04	1703,09
733,22	1601,51
733,41	1608,07
733,59	1682,61
733,78	1653,94
733,96	1711,69
734,14	1581,44
734,33	1552,77
734,51	1697,36
734,69	1742,82
734,88	1639,60
735,06	1635,92
735,24	1639,60
735,43	1785,01
735,61	1579,39
735,79	1700,22
735,98	1685,07
736,16	1821,87
736,34	1661,31
736,53	1672,37
736,71	1728,49
736,89	1669,50
737,08	1732,17
737,26	1656,81
737,44	1625,27
737,63	1706,78
737,81	1590,04
737,99	1718,25
738,18	1698,59
738,36	1840,71
738,54	1702,68
738,73	1710,87
738,91	1833,75
739,09	1645,34
739,28	1630,18
739,46	1649,43
739,64	1662,13
739,82	1768,22
740,01	1633,87
740,19	1867,34
740,37	1723,16
740,56	1667,05
740,74	1656,40
740,92	1688,35
741,11	1572,43
741,29	1671,55
741,47	1815,32
741,65	1624,04
741,84	1662,54
742,02	1814,91
742,20	1635,51
742,39	1637,97
742,57	1639,19
742,75	1594,55
742,93	1645,75
743,12	1699,40
743,30	1598,23
743,48	1656,81
743,67	1664,59
743,85	1600,28
744,03	1815,32
744,21	1664,18
744,40	1638,78
744,58	1698,59
744,76	1680,56
744,94	1678,11
745,13	1642,06
745,31	1637,97
745,49	1642,88
745,67	1594,55
745,86	1748,15
746,04	1630,18
746,22	1660,08
746,40	1625,27
746,59	1594,96
746,77	1689,98
746,95	1820,23
747,13	1668,68
747,32	1674,42
747,50	1674,01
747,68	1653,94
747,86	1677,29
748,05	1750,19
748,23	1647,39
748,41	1705,55
748,59	1649,02
748,77	1586,36
748,96	1662,13
749,14	1585,13
749,32	1864,88
749,50	1730,12
749,69	1742,00
749,87	1717,84
750,05	1686,71
750,23	1596,60
750,41	1604,79
750,60	1722,34
750,78	1583,08
750,96	1696,13
751,14	1688,76
751,32	1669,91
751,51	1616,67
751,69	1597,42
751,87	1575,71
752,05	1694,90
752,23	1696,54
752,42	1660,90
752,60	1714,56
752,78	1703,09
752,96	1612,16
753,14	1660,49
753,33	1574,07
753,51	1675,24
753,69	1647,80
753,87	1705,14
754,05	1720,70
754,23	1692,44
754,42	1641,65
754,60	1671,55
754,78	1789,11
754,96	1583,08
755,14	1644,11
755,32	1722,34
755,51	1567,52
755,69	1702,68
755,87	1571,61
756,05	1578,57
756,23	1683,02
756,41	1667,05
756,60	1676,88
756,78	1658,85
756,96	1584,72
757,14	1679,33
757,32	1580,62
757,50	1723,98
757,68	1655,17
757,87	1629,36
758,05	1641,24
758,23	1681,79
758,41	1820,23
758,59	1791,56
758,77	1782,55
758,95	1771,49
759,14	1672,78
759,32	1744,46
759,50	1640,83
759,68	1656,81
759,86	1633,46
760,04	1660,90
760,22	1685,07
760,40	1945,57
760,59	1666,64
760,77	1773,54
760,95	1621,99
761,13	1617,49
761,31	1769,85
761,49	1679,74
761,67	1753,06
761,85	1620,76
762,03	1654,76
762,22	1794,43
762,40	1729,71
762,58	1636,74
762,76	1673,19
762,94	1685,89
763,12	1702,68
763,30	1780,09
763,48	1689,57
763,66	1635,10
763,84	1576,94
764,02	1664,59
764,21	1683,43
764,39	1878,81
764,57	1658,45
764,75	1667,87
764,93	1731,35
765,11	1635,92
765,29	1678,52
765,47	1653,12
765,65	1691,62
765,83	1677,70
766,01	1662,13
766,19	1722,34
766,37	1848,09
766,56	1716,61
766,74	1646,16
766,92	1643,29
767,10	1627,73
767,28	1665,41
767,46	1701,45
767,64	1648,61
767,82	1717,84
768,00	1646,98
768,18	1636,74
768,36	1726,44
768,54	1829,25
768,72	1751,42
768,90	1564,65
769,08	1578,16
769,26	1687,53
769,44	1666,23
769,62	1669,91
769,80	1753,47
769,98	1703,91
770,16	1613,80
770,34	1688,76
770,52	1588,81
770,71	1707,19
770,89	1650,25
771,07	1828,43
771,25	1650,25
771,43	1776,82
771,61	1719,88
771,79	1669,09
771,97	1683,84
772,15	1650,66
772,33	1670,73
772,51	1831,70
772,69	1592,09
772,87	1696,95
773,05	1669,50
773,23	1757,98
773,41	1694,49
773,59	1772,72
773,77	1671,55
773,95	1740,77
774,13	1680,56
774,31	1746,92
774,49	1734,22
774,67	1657,63
774,85	1666,64
775,03	1703,09
775,21	1731,35
775,39	1585,54
775,57	1605,61
775,75	1772,72
775,93	1635,92
776,10	1636,74
776,28	1733,40
776,46	1621,17
776,64	1677,70
776,82	1624,04
777,00	3025,26
777,18	1588,40
777,36	1722,75
777,54	1633,46
777,72	1583,90
777,90	1706,78
778,08	1586,77
778,26	1581,85
778,44	1593,73
778,62	1646,57
778,80	1834,57
778,98	1737,09
779,16	1665,82
779,34	1845,63
779,52	1660,08
779,70	1780,91
779,88	1582,67
780,05	1631,41
780,23	1644,93
780,41	1676,47
780,59	1623,22
780,77	1714,56
780,95	1648,61
781,13	1764,94
781,31	1665,82
781,49	1774,77
781,67	1696,13
781,85	1685,07
782,03	1695,31
782,21	1679,33
782,39	1685,89
782,56	1751,83
782,74	1723,98
782,92	1684,66
783,10	1864,47
783,28	1640,01
783,46	1593,32
783,64	1783,78
783,82	1671,14
784,00	1792,79
784,18	1635,10
784,35	1580,62
784,53	1589,22
784,71	1614,62
784,89	1676,47
785,07	1655,17
785,25	1728,90
785,43	1739,54
785,61	1604,38
785,79	1644,11
785,96	1741,18
786,14	1638,38
786,32	1734,63
786,50	1730,94
786,68	1555,64
786,86	1658,85
787,04	1720,70
787,22	1663,36
787,39	1626,50
787,57	1643,29
787,75	1685,07
787,93	1712,51
788,11	1587,99
788,29	1693,67
788,47	1718,25
788,65	1640,01
788,82	1693,26
789,00	1654,35
789,18	1743,23
789,36	1705,55
789,54	1610,93
789,72	1641,24
789,89	1652,71
790,07	1748,56
790,25	1716,20
790,43	1698,59
790,61	1770,67
790,79	1686,71
790,96	1623,22
791,14	1823,92
791,32	1517,14
791,50	1718,25
791,68	1803,85
791,86	1651,48
792,03	1673,60
792,21	1671,14
792,39	1637,15
792,57	1589,22
792,75	1543,76
792,93	1683,84
793,10	1673,19
793,28	1660,90
793,46	1567,11
793,64	1731,76
793,82	1803,03
793,99	1737,09
794,17	1578,16
794,35	1682,61
794,53	1652,30
794,71	1570,38
794,88	1606,84
795,06	1674,42
795,24	1601,92
795,42	1646,98
795,60	1753,06
795,77	1651,89
795,95	1694,49
796,13	1666,64
796,31	1679,33
796,49	1832,52
796,66	1660,08
796,84	1609,70
797,02	1760,43
797,20	1713,74
797,37	1702,27
797,55	1587,99
797,73	1637,97
797,91	1540,48
798,08	1704,73
798,26	1743,23
798,44	1604,79
798,62	1613,39
798,80	1611,75
798,97	1631,00
799,15	1659,67
799,33	1838,67
799,51	1798,53
799,68	1678,92
799,86	1701,86
800,04	1687,53
800,22	1712,92
800,39	1618,71
800,57	1814,50
800,75	1730,53
800,93	1700,63
801,10	1719,47
801,28	1800,16
801,46	1644,52
801,63	1700,63
801,81	1736,68
801,99	1696,95
802,17	1698,99
802,34	1797,71
802,52	1598,23
802,70	1742,00
802,88	1747,33
803,05	1755,52
803,23	1627,32
803,41	1658,85
803,58	1715,79
803,76	1737,91
803,94	1801,80
804,12	1722,34
804,29	1742,41
804,47	1782,14
804,65	1673,19
804,82	1717,43
805,00	1658,04
805,18	1680,56
805,35	1693,67
805,53	1726,44
805,71	1719,06
805,89	1726,44
806,06	1739,54
806,24	1580,21
806,42	1658,04
806,59	1653,94
806,77	1731,35
806,95	1685,07
807,12	1744,87
807,30	1747,33
807,48	1597,83
807,65	1564,65
807,83	1700,22
808,01	1685,48
808,18	1701,86
808,36	1705,96
808,54	1574,48
808,71	1654,35
808,89	1712,10
809,07	1706,78
809,24	1767,81
809,42	1812,45
809,60	1621,17
809,77	1737,91
809,95	1733,40
810,13	1661,72
810,30	1684,66
810,48	1832,11
810,66	1651,89
810,83	1715,79
811,01	1694,08
811,18	1688,35
811,36	1532,70
811,54	1626,09
811,71	1701,86
811,89	1743,64
812,07	1630,18
812,24	1856,28
812,42	1610,11
812,59	1687,94
812,77	1720,70
812,95	1724,80
813,12	1710,46
813,30	1619,94
813,48	1687,12
813,65	1701,45
813,83	1755,11
814,00	1791,15
814,18	1748,56
814,36	1660,49
814,53	1698,59
814,71	1668,68
814,88	1771,49
815,06	1658,45
815,24	1766,17
815,41	1632,23
815,59	1695,31
815,76	1633,46
815,94	1830,88
816,12	1644,11
816,29	1789,11
816,47	1700,63
816,64	1822,69
816,82	1621,58
817,00	1772,72
817,17	1655,58
817,35	1922,22
817,52	1667,46
817,70	1748,97
817,87	1772,31
818,05	1639,60
818,23	1675,65
818,40	1813,27
818,58	1707,60
818,75	1640,42
818,93	1663,36
819,10	1724,39
819,28	1628,14
819,46	1712,92
819,63	1667,05
819,81	1814,91
819,98	1567,11
820,16	1765,35
820,33	1573,66
820,51	1831,70
820,68	1747,74
820,86	1721,52
821,03	1795,66
821,21	1755,52
821,39	1821,05
821,56	1680,97
821,74	1628,54
821,91	1651,48
822,09	1655,99
822,26	1684,66
822,44	1633,87
822,61	1600,69
822,79	1778,46
822,96	1710,46
823,14	1644,52
823,31	1629,36
823,49	1791,97
823,66	1741,59
823,84	1725,21
824,01	1684,25
824,19	1581,85
824,36	1745,69
824,54	1737,09
824,71	1822,69
824,89	1719,47
825,06	1846,45
825,24	1688,35
825,41	1741,59
825,59	1706,37
825,76	1744,05
825,94	1687,94
826,11	1805,08
826,29	1645,34
826,46	1732,58
826,64	1777,64
826,81	1749,78
826,99	1692,03
827,16	1639,60
827,34	1613,80
827,51	1683,43
827,69	1939,43
827,86	1754,70
828,04	1693,26
828,21	1714,15
828,39	1741,18
828,56	1685,07
828,74	1767,40
828,91	1704,73
829,09	1915,67
829,26	1684,25
829,43	1807,13
829,61	1681,79
829,78	1697,36
829,96	1727,67
830,13	1642,47
830,31	1764,94
830,48	1725,62
830,66	1678,11
830,83	1635,51
831,01	1655,58
831,18	1672,78
831,35	1683,02
831,53	1766,99
831,70	1761,66
831,88	1897,24
832,05	1770,26
832,23	1624,86
832,40	1772,72
832,57	1768,22
832,75	1671,55
832,92	1748,15
833,10	1851,36
833,27	1737,91
833,45	1708,42
833,62	1690,80
833,79	1742,00
833,97	1640,83
834,14	1722,75
834,32	1780,91
834,49	1652,71
834,66	1683,84
834,84	1628,14
835,01	1797,71
835,19	1627,73
835,36	1620,76
835,53	1862,42
835,71	1744,46
835,88	1762,48
836,06	1727,26
836,23	1852,18
836,40	1656,40
836,58	1644,93
836,75	1723,98
836,93	1646,57
837,10	1708,42
837,27	1701,04
837,45	1694,49
837,62	1657,63
837,79	1638,78
837,97	1789,11
838,14	1662,13
838,32	1704,32
838,49	1657,22
838,66	1745,28
838,84	1781,32
839,01	1773,54
839,18	1752,65
839,36	1665,00
839,53	1626,91
839,70	1776,00
839,88	1677,29
840,05	1782,14
840,23	1702,68
840,40	1636,74
840,57	1718,25
840,75	1664,59
840,92	1846,04
841,09	1753,88
841,27	1742,82
841,44	1679,74
841,61	1802,21
841,79	1707,60
841,96	1683,84
842,13	1559,73
842,31	1700,63
842,48	1653,94
842,65	1656,40
842,83	1719,47
843,00	1725,62
843,17	1674,01
843,35	1800,98
843,52	1676,88
843,69	1714,56
843,86	1653,12
844,04	1654,76
844,21	1644,93
844,38	1753,88
844,56	1698,59
844,73	1730,53
844,90	1779,68
845,08	1691,21
845,25	1701,86
845,42	1761,25
845,60	1734,63
845,77	1702,68
845,94	1625,68
846,11	1758,80
846,29	1846,04
846,46	1691,21
846,63	1697,36
846,81	1811,22
846,98	1730,94
847,15	1695,72
847,32	1740,77
847,50	1609,70
847,67	1697,36
847,84	1720,70
848,01	1748,56
848,19	1742,41
848,36	1689,16
848,53	1614,62
848,71	1786,24
848,88	1703,09
849,05	1606,43
849,22	1708,83
849,40	1664,18
849,57	1801,39
849,74	1724,39
849,91	1729,71
850,09	1640,83
850,26	1680,97
850,43	1655,99
850,60	1685,89
850,78	1717,02
850,95	1714,56
851,12	1646,98
851,29	1728,49
851,47	1820,64
851,64	1672,37
851,81	1715,79
851,98	1730,53
852,15	1830,88
852,33	1607,25
852,50	1663,36
852,67	1797,30
852,84	1698,18
853,02	1784,60
853,19	1829,66
853,36	1674,01
853,53	1621,58
853,70	1907,48
853,88	1811,63
854,05	1782,96
854,22	1694,49
854,39	1758,80
854,56	1753,88
854,74	1660,90
854,91	1772,31
855,08	1614,62
855,25	1735,45
855,42	1639,19
855,60	1697,36
855,77	1779,68
855,94	1844,40
856,11	1664,18
856,28	1724,39
856,46	1782,14
856,63	1688,35
856,80	1667,46
856,97	1819,42
857,14	1755,52
857,31	1689,57
857,49	1661,72
857,66	1805,49
857,83	1640,42
858,00	1687,53
858,17	1694,49
858,34	1687,94
858,52	1627,32
858,69	1695,31
858,86	1744,46
859,03	1689,98
859,20	1776,82
859,37	1741,59
859,55	1668,68
859,72	1757,98
859,89	1703,50
860,06	1810,81
860,23	1809,99
860,40	1674,01
860,57	1798,53
860,75	1614,21
860,92	1764,94
861,09	1794,43
861,26	1825,97
861,43	1696,54
861,60	1708,42
861,77	1615,03
861,95	1637,56
862,12	1760,02
862,29	1658,85
862,46	1749,78
862,63	1798,12
862,80	1822,69
862,97	1857,92
863,14	1659,67
863,31	1823,92
863,49	1732,99
863,66	1772,72
863,83	1785,01
864,00	1851,36
864,17	1635,92
864,34	1731,76
864,51	1644,52
864,68	1755,93
864,85	1696,95
865,02	1695,31
865,20	1777,64
865,37	1705,96
865,54	1727,26
865,71	1767,81
865,88	1694,90
866,05	1638,38
866,22	1711,69
866,39	1726,44
866,56	1661,72
866,73	1723,57
866,90	1882,49
867,07	1796,89
867,25	1682,20
867,42	1827,20
867,59	1738,32
867,76	1799,75
867,93	1676,88
868,10	1769,85
868,27	1658,45
868,44	1758,39
868,61	1730,94
868,78	1735,04
868,95	1663,36
869,12	1776,41
869,29	1724,80
869,46	1792,79
869,63	1781,73
869,80	1662,95
869,97	1768,63
870,14	1761,25
870,32	1763,30
870,49	1736,27
870,66	1807,95
870,83	1718,25
871,00	1688,35
871,17	1705,96
871,34	1726,03
871,51	1699,40
871,68	1658,04
871,85	1807,54
872,02	1823,51
872,19	1731,76
872,36	1658,45
872,53	1769,04
872,70	1723,57
872,87	1684,66
873,04	1631,41
873,21	1638,38
873,38	1656,81
873,55	1800,57
873,72	1746,51
873,89	1710,87
874,06	1634,28
874,23	1621,17
874,40	1659,67
874,57	1737,91
874,74	1871,84
874,91	1634,28
875,08	1687,53
875,25	1769,45
875,42	1777,64
875,59	1755,93
875,76	1758,80
875,93	1750,60
876,10	1855,87
876,27	1643,70
876,44	1915,67
876,61	1741,18
876,78	1703,91
876,95	1760,43
877,12	1701,04
877,29	1733,81
877,46	1775,18
877,62	1705,14
877,79	1646,16
877,96	1732,58
878,13	1649,43
878,30	1714,56
878,47	1787,88
878,64	1791,15
878,81	1740,77
878,98	1696,95
879,15	1843,58
879,32	1853,41
879,49	1823,10
879,66	1765,76
879,83	1637,56
880,00	1845,22
880,17	1637,15
880,34	1753,06
880,51	1657,63
880,67	1829,25
880,84	1591,27
881,01	1699,40
881,18	1855,05
881,35	1678,11
881,52	1865,70
881,69	1703,09
881,86	1855,46
882,03	1760,02
882,20	1783,78
882,37	1733,81
882,54	1791,97
882,70	1754,29
882,87	1660,49
883,04	1779,68
883,21	1785,83
883,38	1635,10
883,55	1731,35
883,72	1673,19
883,89	1640,83
884,06	1657,63
884,23	1640,83
884,39	1599,05
884,56	1789,52
884,73	1791,56
884,90	1723,57
885,07	1806,31
885,24	1670,73
885,41	1846,04
885,58	1684,25
885,74	1646,16
885,91	1816,96
886,08	1746,51
886,25	1669,50
886,42	1662,54
886,59	1743,64
886,76	1591,68
886,93	1612,98
887,09	1838,67
887,26	1975,47
887,43	1726,44
887,60	1701,86
887,77	1762,89
887,94	1770,26
888,10	1959,50
888,27	1851,36
888,44	1796,07
888,61	1594,55
888,78	1593,32
888,95	1791,15
889,12	1616,67
889,28	1762,07
889,45	1689,98
889,62	1737,91
889,79	1707,60
889,96	1739,14
890,13	1704,32
890,29	1743,64
890,46	1874,30
890,63	1746,51
890,80	1775,18
890,97	1701,86
891,13	1617,08
891,30	1785,01
891,47	1865,70
891,64	1674,01
891,81	1632,64
891,98	1651,48
892,14	1734,22
892,31	1661,31
892,48	1695,72
892,65	1686,30
892,82	1667,87
892,98	1601,10
893,15	1788,70
893,32	1775,18
>>>>>End Processed Spectral Data<<<<<
