SpectraSuite Datei
++++++++++++++++++++++++++++++++++++
Datum: Mon Mar 09 10:10:03 CET 2020
Benutzer: Lichtquellen1
Dark-Spektrum vorhanden: Ja
Referenz-Spektrum vorhanden: Nein
Zahl der probierten Teilspektren: 1
Spektrometer: USB4F05832
Integrationszeit (usec): 50000 (USB4F05832)
Spektren Durchschnitt berechnet: 20 (USB4F05832)
Boxcar Glättung: 0 (USB4F05832)
Dunkelstromkorrektur: Nein (USB4F05832)
Puls/Lampe aktiviert: Nein (USB4F05832)
Correct for Detector Non-linearity: Nein (USB4F05832)
Streulichtkorrektur: Nein (USB4F05832)
Anzahl Pixel in verarbeitetem Spektrum: 3648
>>>>>Begin Processed Spectral Data<<<<<
177,54	1229,70
177,75	1229,70
177,97	1229,70
178,19	1208,71
178,41	1195,19
178,63	1287,25
178,85	1251,72
179,07	1266,77
179,29	1269,54
179,51	1243,63
179,73	1274,66
179,95	1247,21
180,17	1251,31
180,39	1290,53
180,61	1281,52
180,83	1300,46
181,05	1259,40
181,27	1265,03
181,49	1287,56
181,71	1297,08
181,92	1350,02
182,14	1307,53
182,36	1305,27
182,58	1288,17
182,80	1308,34
183,02	1343,06
183,24	1313,57
183,46	1304,04
183,68	1304,25
183,90	1322,78
184,12	1271,07
184,34	1305,07
184,56	1307,12
184,78	1288,58
185,00	1294,73
185,21	1315,72
185,43	1306,91
185,65	1312,75
185,87	1292,99
186,09	1326,67
186,31	1297,08
186,53	1315,82
186,75	1317,46
186,97	1311,11
187,19	1333,13
187,41	1280,08
187,63	1335,17
187,84	1274,66
188,06	1325,34
188,28	1297,59
188,50	1333,74
188,72	1332,31
188,94	1341,11
189,16	1295,55
189,38	1309,57
189,60	1308,24
189,82	1326,78
190,03	1303,63
190,25	1313,06
190,47	1310,70
190,69	1328,01
190,91	1278,85
191,13	1316,02
191,35	1332,20
191,57	1314,80
191,79	1311,01
192,01	1324,01
192,22	1326,88
192,44	1313,87
192,66	1315,21
192,88	1334,05
193,10	1314,18
193,32	1304,76
193,54	1343,77
193,76	1337,22
193,98	1293,70
194,19	1326,67
194,41	1310,80
194,63	1296,77
194,85	1302,92
195,07	1322,07
195,29	1306,30
195,51	1308,65
195,73	1289,50
195,94	1310,29
196,16	1307,01
196,38	1330,57
196,60	1301,48
196,82	1301,07
197,04	1292,17
197,26	1293,60
197,48	1286,23
197,69	1324,42
197,91	1290,63
198,13	1303,22
198,35	1289,61
198,57	1310,60
198,79	1319,92
199,01	1313,77
199,22	1302,51
199,44	1330,97
199,66	1323,30
199,88	1326,26
200,10	1330,26
200,32	1324,32
200,54	1317,36
200,75	1354,94
200,97	1302,61
201,19	1324,83
201,41	1325,85
201,63	1317,05
201,85	1302,61
202,06	1331,79
202,28	1299,74
202,50	1305,78
202,72	1282,03
202,94	1309,57
203,16	1301,18
203,38	1303,94
203,59	1314,08
203,81	1340,60
204,03	1292,37
204,25	1325,55
204,47	1332,51
204,69	1298,51
204,90	1309,98
205,12	1312,65
205,34	1315,31
205,56	1305,38
205,78	1310,09
206,00	1349,51
206,21	1321,55
206,43	1326,37
206,65	1318,28
206,87	1318,99
207,09	1317,36
207,30	1300,26
207,52	1328,72
207,74	1316,95
207,96	1298,10
208,18	1315,51
208,40	1290,53
208,61	1317,25
208,83	1318,58
209,05	1294,21
209,27	1293,39
209,49	1327,60
209,70	1316,23
209,92	1320,02
210,14	1300,26
210,36	1314,39
210,58	1305,27
210,79	1316,02
211,01	1302,20
211,23	1317,15
211,45	1325,85
211,67	1329,54
211,88	1292,06
212,10	1330,26
212,32	1291,55
212,54	1316,43
212,76	1303,02
212,97	1313,87
213,19	1293,91
213,41	1330,57
213,63	1293,19
213,85	1312,85
214,06	1306,50
214,28	1339,58
214,50	1319,10
214,72	1329,34
214,94	1324,01
215,15	1312,54
215,37	1289,71
215,59	1292,99
215,81	1325,75
216,02	1311,83
216,24	1328,82
216,46	1308,86
216,68	1304,86
216,90	1320,22
217,11	1329,85
217,33	1299,13
217,55	1323,60
217,77	1325,04
217,98	1328,82
218,20	1348,38
218,42	1331,38
218,64	1325,65
218,85	1340,19
219,07	1325,14
219,29	1312,85
219,51	1311,72
219,73	1291,96
219,94	1319,71
220,16	1326,78
220,38	1326,47
220,60	1288,99
220,81	1301,79
221,03	1297,49
221,25	1322,27
221,47	1289,09
221,68	1319,20
221,90	1323,09
222,12	1312,13
222,34	1310,09
222,55	1330,77
222,77	1329,75
222,99	1326,26
223,21	1326,88
223,42	1322,68
223,64	1304,86
223,86	1300,56
224,08	1309,57
224,29	1327,19
224,51	1308,55
224,73	1325,75
224,94	1305,27
225,16	1306,40
225,38	1310,39
225,60	1333,84
225,81	1303,63
226,03	1316,23
226,25	1293,29
226,47	1319,81
226,68	1321,76
226,90	1315,21
227,12	1323,30
227,33	1322,78
227,55	1305,27
227,77	1299,44
227,99	1330,97
228,20	1312,03
228,42	1325,34
228,64	1322,99
228,86	1309,98
229,07	1313,77
229,29	1287,15
229,51	1284,38
229,72	1354,53
229,94	1316,02
230,16	1338,76
230,38	1317,56
230,59	1293,80
230,81	1337,12
231,03	1312,95
231,24	1315,62
231,46	1303,33
231,68	1312,24
231,89	1307,42
232,11	1306,91
232,33	1342,14
232,55	1316,13
232,76	1322,89
232,98	1319,71
233,20	1308,34
233,41	1310,80
233,63	1308,04
233,85	1299,85
234,06	1293,09
234,28	1338,86
234,50	1296,36
234,71	1306,19
234,93	1344,39
235,15	1324,22
235,37	1299,23
235,58	1330,57
235,80	1309,37
236,02	1316,54
236,23	1324,73
236,45	1291,86
236,67	1335,28
236,88	1330,26
237,10	1334,66
237,32	1346,64
237,53	1319,20
237,75	1313,46
237,97	1294,52
238,18	1322,78
238,40	1330,67
238,62	1304,56
238,83	1310,50
239,05	1312,24
239,27	1309,06
239,48	1310,19
239,70	1306,50
239,92	1342,34
240,13	1339,68
240,35	1310,19
240,57	1313,98
240,78	1309,06
241,00	1297,59
241,22	1320,94
241,43	1348,69
241,65	1313,46
241,87	1332,00
242,08	1361,18
242,30	1303,43
242,52	1319,20
242,73	1326,06
242,95	1308,04
243,16	1328,41
243,38	1354,94
243,60	1316,23
243,81	1323,91
244,03	1337,12
244,25	1299,74
244,46	1316,02
244,68	1315,00
244,90	1313,06
245,11	1308,14
245,33	1320,84
245,55	1327,19
245,76	1319,92
245,98	1320,22
246,19	1329,13
246,41	1369,07
246,63	1318,28
246,84	1337,53
247,06	1318,69
247,28	1341,93
247,49	1326,47
247,71	1311,72
247,92	1329,54
248,14	1347,36
248,36	1324,01
248,57	1337,12
248,79	1348,49
249,01	1306,40
249,22	1322,07
249,44	1339,99
249,65	1315,72
249,87	1326,88
250,09	1322,78
250,30	1315,00
250,52	1324,32
250,73	1329,95
250,95	1296,77
251,17	1316,33
251,38	1312,24
251,60	1312,44
251,81	1350,64
252,03	1342,65
252,25	1296,98
252,46	1318,79
252,68	1321,55
252,89	1315,72
253,11	1324,73
253,33	1334,97
253,54	1303,12
253,76	1337,02
253,97	1335,58
254,19	1332,92
254,41	1300,66
254,62	1344,59
254,84	1311,21
255,05	1333,02
255,27	1321,86
255,49	1351,04
255,70	1326,06
255,92	1320,84
256,13	1307,12
256,35	1338,96
256,56	1318,18
256,78	1338,25
257,00	1340,60
257,21	1325,75
257,43	1304,86
257,64	1311,72
257,86	1351,45
258,08	1338,25
258,29	1350,12
258,51	1322,37
258,72	1323,09
258,94	1353,20
259,15	1326,06
259,37	1337,32
259,59	1303,94
259,80	1318,58
260,02	1312,85
260,23	1331,18
260,45	1308,65
260,66	1330,16
260,88	1321,76
261,09	1324,22
261,31	1316,95
261,53	1334,05
261,74	1339,99
261,96	1298,31
262,17	1303,12
262,39	1323,91
262,60	1315,21
262,82	1332,10
263,03	1307,73
263,25	1337,73
263,46	1320,02
263,68	1347,87
263,90	1331,59
264,11	1298,41
264,33	1342,14
264,54	1330,05
264,76	1307,94
264,97	1345,62
265,19	1308,55
265,40	1350,64
265,62	1316,95
265,83	1337,84
266,05	1307,12
266,26	1322,17
266,48	1349,71
266,70	1359,65
266,91	1318,38
267,13	1340,91
267,34	1309,78
267,56	1341,93
267,77	1308,04
267,99	1312,03
268,20	1335,48
268,42	1328,21
268,63	1313,36
268,85	1365,48
269,06	1335,07
269,28	1333,64
269,49	1311,93
269,71	1340,40
269,92	1319,10
270,14	1308,04
270,35	1317,05
270,57	1333,64
270,78	1321,04
271,00	1331,08
271,21	1360,88
271,43	1322,68
271,64	1310,60
271,86	1341,62
272,07	1305,68
272,29	1356,37
272,50	1319,92
272,72	1345,82
272,93	1335,58
273,15	1367,53
273,36	1329,23
273,58	1336,09
273,79	1308,75
274,01	1334,25
274,22	1306,30
274,44	1325,45
274,65	1321,14
274,87	1332,51
275,08	1336,20
275,30	1345,93
275,51	1362,41
275,73	1354,73
275,94	1311,83
276,16	1333,53
276,37	1325,55
276,59	1328,93
276,80	1326,37
277,02	1328,11
277,23	1321,66
277,45	1337,12
277,66	1304,76
277,88	1338,04
278,09	1360,36
278,30	1333,94
278,52	1296,06
278,73	1369,37
278,95	1327,70
279,16	1352,58
279,38	1330,57
279,59	1337,43
279,81	1317,77
280,02	1321,86
280,24	1317,66
280,45	1351,56
280,67	1347,46
280,88	1364,87
281,09	1304,35
281,31	1324,32
281,52	1324,52
281,74	1364,36
281,95	1331,08
282,17	1337,84
282,38	1347,56
282,60	1351,56
282,81	1347,05
283,02	1320,43
283,24	1319,71
283,45	1345,52
283,67	1310,50
283,88	1354,42
284,10	1319,30
284,31	1325,45
284,53	1316,64
284,74	1351,35
284,95	1334,97
285,17	1328,31
285,38	1324,01
285,60	1325,55
285,81	1290,53
286,03	1354,63
286,24	1341,11
286,45	1341,93
286,67	1326,57
286,88	1311,52
287,10	1327,19
287,31	1298,72
287,53	1333,13
287,74	1360,47
287,95	1315,62
288,17	1342,85
288,38	1336,30
288,60	1321,96
288,81	1319,40
289,02	1317,77
289,24	1349,82
289,45	1333,43
289,67	1330,46
289,88	1339,37
290,10	1323,91
290,31	1345,11
290,52	1329,75
290,74	1325,04
290,95	1346,44
291,17	1341,83
291,38	1309,37
291,59	1322,99
291,81	1341,83
292,02	1324,11
292,24	1332,00
292,45	1343,16
292,66	1333,33
292,88	1358,11
293,09	1322,99
293,31	1333,74
293,52	1329,95
293,73	1332,72
293,95	1339,88
294,16	1346,44
294,37	1333,02
294,59	1334,97
294,80	1347,05
295,02	1345,11
295,23	1308,14
295,44	1356,27
295,66	1327,70
295,87	1334,15
296,09	1334,25
296,30	1332,20
296,51	1316,84
296,73	1328,21
296,94	1326,78
297,15	1326,47
297,37	1315,10
297,58	1337,94
297,79	1335,28
298,01	1335,69
298,22	1344,18
298,44	1323,30
298,65	1334,46
298,86	1359,95
299,08	1324,32
299,29	1323,91
299,50	1331,18
299,72	1320,84
299,93	1347,36
300,14	1345,52
300,36	1304,15
300,57	1321,25
300,79	1325,45
301,00	1357,70
301,21	1316,13
301,43	1331,79
301,64	1333,84
301,85	1342,24
302,07	1360,77
302,28	1325,04
302,49	1354,01
302,71	1349,00
302,92	1352,89
303,13	1362,41
303,35	1345,31
303,56	1371,63
303,77	1327,29
303,99	1331,18
304,20	1338,14
304,41	1333,43
304,63	1316,02
304,84	1365,59
305,05	1351,56
305,27	1364,15
305,48	1347,36
305,69	1338,96
305,91	1356,78
306,12	1356,88
306,33	1352,48
306,55	1340,81
306,76	1330,05
306,97	1347,15
307,19	1351,45
307,40	1373,47
307,61	1367,53
307,82	1348,18
308,04	1352,79
308,25	1355,86
308,46	1333,74
308,68	1365,38
308,89	1362,92
309,10	1364,15
309,32	1345,11
309,53	1347,67
309,74	1364,15
309,96	1348,69
310,17	1353,91
310,38	1353,91
310,59	1363,44
310,81	1349,00
311,02	1353,30
311,23	1373,57
311,45	1352,79
311,66	1353,50
311,87	1345,11
312,09	1381,46
312,30	1355,14
312,51	1367,94
312,72	1370,60
312,94	1386,47
313,15	1357,50
313,36	1377,26
313,58	1366,20
313,79	1384,32
314,00	1366,00
314,21	1350,74
314,43	1380,43
314,64	1378,59
314,85	1347,77
315,06	1353,09
315,28	1402,65
315,49	1382,28
315,70	1375,42
315,92	1401,63
316,13	1411,36
316,34	1411,56
316,55	1393,64
316,77	1369,99
316,98	1403,17
317,19	1361,80
317,40	1363,13
317,62	1380,84
317,83	1399,27
318,04	1385,96
318,25	1399,07
318,47	1377,26
318,68	1391,80
318,89	1423,65
319,11	1396,00
319,32	1386,99
319,53	1405,62
319,74	1410,44
319,96	1410,23
320,17	1402,35
320,38	1377,05
320,59	1424,57
320,81	1408,49
321,02	1415,04
321,23	1404,80
321,44	1432,35
321,65	1400,09
321,87	1430,71
322,08	1429,38
322,29	1414,02
322,50	1394,15
322,72	1398,87
322,93	1420,98
323,14	1406,14
323,35	1417,60
323,57	1437,98
323,78	1415,86
323,99	1439,62
324,20	1437,37
324,41	1413,82
324,63	1444,74
324,84	1424,98
325,05	1407,36
325,26	1449,35
325,48	1427,54
325,69	1449,14
325,90	1420,78
326,11	1440,03
326,32	1430,81
326,54	1452,21
326,75	1431,33
326,96	1447,91
327,17	1462,04
327,39	1445,25
327,60	1429,99
327,81	1445,25
328,02	1426,51
328,23	1441,97
328,45	1440,23
328,66	1438,60
328,87	1455,90
329,08	1463,89
329,29	1440,85
329,51	1441,16
329,72	1440,13
329,93	1467,27
330,14	1439,93
330,35	1461,43
330,56	1444,64
330,78	1460,00
330,99	1455,70
331,20	1488,36
331,41	1489,79
331,62	1454,06
331,84	1482,63
332,05	1504,23
332,26	1483,45
332,47	1510,89
332,68	1490,51
332,90	1488,67
333,11	1484,88
333,32	1544,89
333,53	1519,18
333,74	1463,07
333,95	1497,68
334,17	1498,29
334,38	1483,14
334,59	1496,86
334,80	1483,96
335,01	1518,36
335,22	1504,85
335,44	1508,94
335,65	1486,21
335,86	1516,73
336,07	1495,43
336,28	1512,73
336,49	1509,35
336,71	1493,07
336,92	1540,58
337,13	1517,03
337,34	1503,52
337,55	1576,22
337,76	1512,22
337,97	1531,78
338,19	1522,05
338,40	1530,86
338,61	1548,26
338,82	1543,96
339,03	1532,39
339,24	1522,05
339,45	1522,56
339,67	1555,64
339,88	1561,68
340,09	1573,56
340,30	1550,41
340,51	1544,89
340,72	1561,47
340,93	1548,67
341,15	1585,03
341,36	1582,88
341,57	1560,04
341,78	1559,22
341,99	1577,35
342,20	1600,69
342,41	1570,59
342,62	1609,91
342,84	1557,69
343,05	1601,41
343,26	1557,89
343,47	1592,81
343,68	1550,82
343,89	1581,44
344,10	1584,72
344,31	1599,67
344,53	1585,23
344,74	1618,00
344,95	1606,53
345,16	1606,22
345,37	1628,03
345,58	1610,83
345,79	1589,84
346,00	1617,28
346,21	1599,87
346,42	1621,07
346,64	1613,39
346,85	1663,05
347,06	1639,91
347,27	1627,01
347,48	1651,89
347,69	1650,66
347,90	1652,61
348,11	1653,02
348,32	1638,37
348,53	1645,24
348,75	1648,82
348,96	1682,51
349,17	1658,85
349,38	1668,99
349,59	1658,14
349,80	1657,22
350,01	1702,58
350,22	1710,98
350,43	1680,56
350,64	1713,23
350,85	1714,56
351,06	1681,48
351,28	1700,84
351,49	1694,59
351,70	1713,64
351,91	1701,76
352,12	1702,68
352,33	1698,79
352,54	1705,65
352,75	1713,02
352,96	1723,16
353,17	1734,73
353,38	1735,55
353,59	1766,58
353,80	1762,48
354,01	1751,01
354,22	1727,56
354,44	1749,58
354,65	1783,58
354,86	1744,05
355,07	1737,50
355,28	1758,69
355,49	1742,72
355,70	1778,05
355,91	1780,20
356,12	1752,86
356,33	1775,69
356,54	1790,95
356,75	1762,07
356,96	1833,96
357,17	1802,11
357,38	1805,80
357,59	1788,08
357,80	1815,32
358,01	1836,41
358,22	1823,00
358,43	1815,63
358,64	1824,84
358,85	1808,87
359,07	1837,03
359,28	1796,79
359,49	1824,33
359,70	1830,68
359,91	1870,72
360,12	1816,14
360,33	1858,02
360,54	1835,59
360,75	1837,34
360,96	1847,17
361,17	1806,41
361,38	1855,15
361,59	1919,46
361,80	1842,46
362,01	1884,34
362,22	1868,77
362,43	1864,37
362,64	1880,75
362,85	1898,67
363,06	1901,95
363,27	1914,65
363,48	1918,84
363,69	1920,69
363,90	1894,68
364,11	1917,72
364,32	1912,70
364,53	1944,14
364,74	1923,96
364,95	1955,81
365,16	1928,67
365,37	1967,28
365,58	1938,91
365,79	1956,22
366,00	1974,04
366,21	1958,06
366,42	1994,62
366,63	1991,14
366,84	1967,28
367,05	1996,36
367,26	1988,27
367,47	1998,31
367,68	1966,36
367,89	1991,96
368,10	1969,53
368,31	1923,15
368,52	1956,94
368,73	2030,05
368,94	1977,21
369,15	1995,03
369,36	2013,87
369,57	2028,21
369,78	2037,22
369,99	2074,90
370,20	2064,05
370,40	2047,76
370,61	2067,12
370,82	2108,08
371,03	2085,65
371,24	2110,94
371,45	2100,29
371,66	2078,89
371,87	2116,27
372,08	2130,50
372,29	2131,94
372,50	2130,09
372,71	2174,23
372,92	2178,53
373,13	2139,00
373,34	2158,35
373,55	2158,25
373,76	2193,68
373,97	2184,67
374,18	2195,12
374,39	2217,85
374,60	2263,72
374,81	2211,19
375,01	2189,69
375,22	2250,10
375,43	2205,87
375,64	2216,62
375,85	2195,32
376,06	2241,50
376,27	2244,78
376,48	2271,20
376,69	2244,37
376,90	2269,46
377,11	2291,27
377,32	2263,11
377,53	2265,57
377,74	2305,60
377,94	2303,66
378,15	2312,67
378,36	2311,75
378,57	2310,62
378,78	2363,77
378,99	2311,95
379,20	2378,92
379,41	2360,49
379,62	2335,50
379,83	2345,64
380,04	2385,47
380,25	2375,03
380,45	2378,10
380,66	2399,81
380,87	2389,88
381,08	2379,43
381,29	2378,20
381,50	2371,34
381,71	2408,72
381,92	2434,52
382,13	2408,21
382,34	2423,36
382,55	2435,65
382,75	2432,68
382,96	2459,00
383,17	2459,41
383,38	2492,79
383,59	2470,87
383,80	2437,19
384,01	2477,12
384,22	2545,01
384,43	2522,89
384,63	2460,74
384,84	2511,42
385,05	2493,40
385,26	2508,04
385,47	2572,56
385,68	2554,53
385,89	2571,12
386,10	2534,98
386,30	2616,08
386,51	2532,11
386,72	2584,74
386,93	2548,08
387,14	2581,77
387,35	2640,04
387,56	2611,47
387,77	2568,46
387,97	2638,40
388,18	2665,02
388,39	2658,98
388,60	2668,71
388,81	2652,02
389,02	2702,40
389,23	2666,86
389,43	2685,50
389,64	2697,69
389,85	2645,57
390,06	2704,65
390,27	2699,84
390,48	2742,33
390,69	2716,43
390,89	2778,48
391,10	2749,60
391,31	2712,84
391,52	2768,34
391,73	2802,24
391,94	2761,58
392,14	2781,24
392,35	2802,85
392,56	2833,77
392,77	2876,17
392,98	2842,17
393,19	2878,52
393,39	2898,49
393,60	2834,70
393,81	2979,18
394,02	2867,16
394,23	2884,87
394,44	2859,68
394,64	2887,43
394,85	2987,27
395,06	2924,60
395,27	2953,79
395,48	2986,96
395,69	2911,70
395,89	3031,10
396,10	3035,29
396,31	3033,14
396,52	2982,25
396,73	3040,72
396,93	3061,71
397,14	3034,99
397,35	3113,94
397,56	3077,99
397,77	3059,15
397,97	3108,61
398,18	3164,62
398,39	3067,75
398,60	3109,84
398,81	3099,91
399,01	3173,12
399,22	3106,97
399,43	3186,64
399,64	3190,94
399,85	3156,74
400,05	3169,64
400,26	3169,64
400,47	3161,24
400,68	3190,22
400,89	3218,49
401,09	3205,38
401,30	3268,66
401,51	3220,64
401,72	3248,69
401,93	3310,34
402,13	3291,39
402,34	3288,73
402,55	3324,06
402,76	3315,87
402,96	3303,37
403,17	3288,83
403,38	3361,54
403,59	3314,84
403,80	3480,32
404,00	3412,94
404,21	3384,06
404,42	3443,45
404,63	3450,72
404,83	3469,05
405,04	3363,89
405,25	3448,68
405,46	3436,49
405,66	3371,88
405,87	3501,51
406,08	3464,04
406,29	3579,23
406,49	3492,61
406,70	3511,65
406,91	3436,80
407,12	3620,91
407,32	3511,96
407,53	3667,91
407,74	3592,65
407,95	3541,96
408,15	3610,57
408,36	3554,04
408,57	3583,02
408,78	3649,48
408,98	3642,11
409,19	3601,35
409,40	3690,95
409,61	3627,36
409,81	3648,25
410,02	3711,33
410,23	3688,19
410,44	3821,20
410,64	3702,01
410,85	3705,29
411,06	3756,79
411,26	3729,97
411,47	3737,34
411,68	3795,71
411,89	3679,38
412,09	3792,94
412,30	3817,31
412,51	3723,51
412,72	3777,27
412,92	3897,69
413,13	3827,96
413,34	3833,80
413,54	3860,42
413,75	3901,99
413,96	3860,11
414,17	3837,07
414,37	3852,84
414,58	3905,58
414,79	3960,46
414,99	3913,57
415,20	3978,28
415,41	3951,45
415,61	3972,65
415,82	3989,75
416,03	3913,87
416,24	3962,21
416,44	4006,34
416,65	4094,50
416,86	4124,81
417,06	4039,62
417,27	4005,52
417,48	4028,46
417,68	4083,55
417,89	4140,89
418,10	4064,40
418,30	4143,66
418,51	4126,45
418,72	4117,34
418,92	4226,19
419,13	4074,74
419,34	4185,43
419,55	4163,73
419,75	4378,97
419,96	4135,77
420,17	4339,95
420,37	4282,10
420,58	4162,29
420,79	4121,74
420,99	4280,25
421,20	4338,62
421,41	4302,48
421,61	4341,18
421,82	4208,99
422,03	4366,37
422,23	4277,69
422,44	4394,12
422,65	4404,77
422,85	4338,31
423,06	4380,40
423,26	4420,95
423,47	4514,54
423,68	4397,71
423,88	4471,74
424,09	4428,12
424,30	4457,40
424,50	4491,71
424,71	4570,14
424,92	4512,70
425,12	4519,05
425,33	4659,85
425,54	4617,56
425,74	4693,94
425,95	4567,48
426,15	4690,77
426,36	4543,42
426,57	4700,50
426,77	4645,10
426,98	4664,35
427,19	4674,90
427,39	4740,23
427,60	4646,33
427,81	4719,75
428,01	4727,33
428,22	4912,46
428,42	4653,29
428,63	4792,14
428,84	4820,82
429,04	4771,05
429,25	4814,06
429,45	4726,51
429,66	4900,69
429,87	4928,74
430,07	4900,69
430,28	4920,24
430,49	4912,77
430,69	4987,11
430,90	4930,28
431,10	4930,28
431,31	4979,23
431,52	5110,71
431,72	4963,35
431,93	4973,80
432,13	5070,77
432,34	5209,62
432,55	4978,92
432,75	5245,16
432,96	5268,60
433,16	5173,48
433,37	5246,18
433,58	5319,91
433,78	5247,51
433,99	5018,65
434,19	5287,86
434,40	5267,79
434,60	5375,20
434,81	5339,77
435,02	5299,32
435,22	5369,06
435,43	5303,93
435,63	5333,93
435,84	5404,59
436,05	5488,45
436,25	5209,01
436,46	5534,94
436,66	5479,95
436,87	5454,76
437,07	5385,34
437,28	5435,41
437,48	5596,89
437,69	5427,94
437,90	5484,56
438,10	5542,11
438,31	5556,65
438,51	5749,88
438,72	5639,18
438,92	5596,69
439,13	5718,65
439,34	5633,96
439,54	5725,92
439,75	5658,33
439,95	5622,19
440,16	5719,87
440,36	5839,17
440,57	5715,98
440,77	5902,55
440,98	5750,80
441,18	5721,72
441,39	5740,05
441,60	6008,64
441,80	5895,59
442,01	5712,60
442,21	5932,04
442,42	5773,94
442,62	5928,77
442,83	5891,80
443,03	5965,22
443,24	5980,38
443,44	5934,40
443,65	5991,33
443,85	5952,52
444,06	6031,06
444,26	6046,73
444,47	5911,97
444,67	6198,08
444,88	6059,63
445,09	5991,23
445,29	6065,47
445,50	6106,94
445,70	5957,85
445,91	6095,78
446,11	5994,51
446,32	6182,92
446,52	6187,22
446,73	6118,51
446,93	6207,50
447,14	6188,14
447,34	6230,84
447,55	6085,13
447,75	6234,94
447,96	6319,42
448,16	6167,87
448,37	6269,24
448,57	6179,23
448,78	6276,61
448,98	6234,94
449,19	6221,63
449,39	6335,60
449,60	6316,24
449,80	6378,40
450,01	6354,03
450,21	6358,94
450,42	6426,53
450,62	6407,28
450,83	6380,24
451,03	6395,91
451,23	6409,53
451,44	6436,25
451,64	6514,90
451,85	6467,08
452,05	6560,26
452,26	6521,86
452,46	6576,44
452,67	6481,92
452,87	6474,55
453,08	6523,29
453,28	6418,74
453,49	6672,08
453,69	6541,11
453,90	6628,46
454,10	6770,07
454,31	6734,23
454,51	6679,45
454,71	6684,37
454,92	6639,62
455,12	6599,58
455,33	6847,49
455,53	6890,39
455,74	7028,22
455,94	7166,56
456,15	7219,70
456,35	7406,38
456,55	7264,96
456,76	7405,35
456,96	7752,07
457,17	7198,71
457,37	7996,19
457,58	7551,99
457,78	7892,15
457,99	7822,83
458,19	7330,40
458,39	7873,83
458,60	8004,18
458,80	8024,25
459,01	7852,32
459,21	7863,69
459,42	8140,78
459,62	7723,50
459,82	8319,77
460,03	8061,21
460,23	8285,36
460,44	8226,18
460,64	7827,64
460,85	8519,75
461,05	8057,22
461,25	8015,03
461,46	8614,58
461,66	8398,82
461,87	8193,51
462,07	8347,32
462,27	8034,80
462,48	8023,63
462,68	8274,10
462,89	8225,97
463,09	8282,19
463,29	8417,97
463,50	8345,37
463,70	8619,18
463,91	8359,19
464,11	8226,38
464,31	8576,18
464,52	8630,45
464,72	8809,64
464,93	8612,53
465,13	9062,67
465,33	8707,14
465,54	8459,75
465,74	8484,32
465,95	8795,21
466,15	8921,67
466,35	8988,64
466,56	8838,83
466,76	8963,34
466,96	8847,43
467,17	8941,94
467,37	8995,70
467,58	9010,55
467,78	8992,94
467,98	9223,44
468,19	8879,38
468,39	9265,11
468,59	9483,02
468,80	9315,90
469,00	9158,31
469,21	9187,60
469,41	9239,00
469,61	9679,93
469,82	9212,99
470,02	9736,56
470,22	10022,45
470,43	9810,38
470,63	9484,45
470,83	10208,82
471,04	9732,66
471,24	9907,97
471,45	9768,71
471,65	9951,90
471,85	9924,56
472,06	10136,63
472,26	10235,44
472,46	10282,44
472,67	10535,16
472,87	10410,95
473,07	10356,07
473,28	10259,91
473,48	10576,22
473,68	10768,53
473,89	10724,39
474,09	10699,31
474,29	10704,84
474,50	10980,80
474,70	10808,67
474,90	11147,81
475,11	11263,21
475,31	11272,33
475,51	11312,88
475,72	11353,22
475,92	11473,03
476,12	11298,03
476,33	11664,92
476,53	11679,57
476,73	11834,80
476,93	11966,08
477,14	11789,13
477,34	11876,68
477,54	12096,74
477,75	12223,92
477,95	12190,43
478,15	12259,45
478,36	12417,76
478,56	12496,30
478,76	12656,96
478,97	12879,68
479,17	12667,71
479,37	12733,04
479,57	12855,10
479,78	12988,53
479,98	12864,62
480,18	13201,72
480,39	13381,12
480,59	13339,55
480,79	13421,57
480,99	13582,74
481,20	13491,40
481,40	13747,40
481,60	13932,54
481,81	13816,42
482,01	13931,61
482,21	14014,35
482,41	14125,45
482,62	14322,98
482,82	14324,72
483,02	14541,91
483,23	14492,55
483,43	14760,12
483,63	14602,12
483,83	14803,64
484,04	15139,10
484,24	14979,56
484,44	15240,27
484,64	15089,84
484,85	15296,69
485,05	15488,17
485,25	15511,11
485,45	15495,55
485,66	15676,07
485,86	15837,15
486,06	15855,89
486,26	15931,97
486,47	15986,85
486,67	16135,33
486,87	16318,83
487,07	16276,33
487,28	16281,76
487,48	16330,30
487,68	16814,13
487,88	16661,86
488,09	16828,16
488,29	16778,60
488,49	17117,23
488,69	16997,01
488,90	17106,17
489,10	17038,08
489,30	17123,17
489,50	17237,86
489,71	17354,49
489,91	17609,25
490,11	17517,30
490,31	17672,13
490,52	17696,70
490,72	17757,83
490,92	18004,72
491,12	18020,38
491,32	18089,20
491,53	18220,68
491,73	18197,64
491,93	18378,78
492,13	18436,53
492,33	18438,48
492,54	18382,06
492,74	18708,30
492,94	18656,89
493,14	18861,79
493,35	18795,54
493,55	18956,92
493,75	19090,04
493,95	19012,52
494,15	18970,03
494,36	19326,89
494,56	19225,92
494,76	19349,52
494,96	19372,66
495,16	19425,80
495,37	19491,44
495,57	19580,73
495,77	19639,41
495,97	19695,32
496,17	19925,40
496,37	19913,22
496,58	19962,17
496,78	19824,03
496,98	20077,88
497,18	20125,39
497,38	20115,35
497,59	20204,03
497,79	20245,50
497,99	20282,57
498,19	20444,36
498,39	20410,98
498,59	20585,16
498,80	20446,41
499,00	20684,38
499,20	20627,65
499,40	20554,95
499,60	20645,88
499,80	20816,68
500,01	20807,36
500,21	20742,95
500,41	20717,97
500,61	20857,03
500,81	20887,85
501,01	20802,04
501,22	20942,84
501,42	20841,67
501,62	20702,40
501,82	20817,40
502,02	20769,27
502,22	20656,73
502,42	20753,71
502,63	20955,43
502,83	20795,48
503,03	20886,21
503,23	20967,92
503,43	20986,66
503,63	20970,48
503,83	21209,48
504,04	20990,14
504,24	21200,67
504,44	21172,00
504,64	21326,42
504,84	21408,34
505,04	21320,79
505,24	21592,25
505,44	21713,28
505,65	21556,00
505,85	21777,69
506,05	21818,65
506,25	21709,80
506,45	21694,24
506,65	21719,63
506,85	21960,68
507,05	21975,63
507,26	21889,71
507,46	22008,60
507,66	22067,07
507,86	21952,89
508,06	22154,93
508,26	22020,17
508,46	22112,84
508,66	22009,42
508,86	22204,18
509,06	22236,54
509,27	22254,66
509,47	22120,21
509,67	22233,57
509,87	22199,26
510,07	22345,90
510,27	22395,15
510,47	22399,35
510,67	22477,89
510,87	22513,12
511,07	22459,05
511,28	22549,67
511,48	22466,73
511,68	22630,46
511,88	22710,03
512,08	22653,81
512,28	22708,70
512,48	22713,41
512,68	22712,28
512,88	22798,40
513,08	23002,48
513,28	22990,70
513,48	23019,58
513,68	23292,16
513,89	23207,38
514,09	23083,47
514,29	23435,62
514,49	23389,24
514,69	23251,00
514,89	23475,56
515,09	23653,42
515,29	23748,04
515,49	23588,09
515,69	23720,91
515,89	23886,59
516,09	23948,23
516,29	23925,09
516,49	24007,83
516,69	24112,68
516,89	24165,11
517,09	24031,99
517,29	24374,21
517,50	24377,48
517,70	24338,98
517,90	24402,67
518,10	24337,04
518,30	24858,45
518,50	24625,80
518,70	24797,32
518,90	25105,43
519,10	25180,39
519,30	25229,85
519,50	25305,73
519,70	25417,95
519,90	25396,76
520,10	25638,01
520,30	25475,91
520,50	25507,76
520,70	25793,35
520,90	25781,88
521,10	25914,48
521,30	25997,22
521,50	26332,88
521,70	26338,72
521,90	26453,92
522,10	26634,45
522,30	26244,31
522,50	26649,09
522,70	26543,21
522,90	26847,13
523,10	26698,34
523,30	27124,94
523,50	26959,77
523,70	27145,83
523,90	27160,78
524,10	27377,25
524,30	27275,16
524,50	27449,54
524,70	27526,75
524,90	27487,84
525,10	27805,68
525,30	27616,45
525,50	27964,19
525,70	27994,20
525,90	27896,41
526,10	28012,22
526,30	28233,60
526,50	28355,15
526,70	28418,74
526,90	28470,04
527,10	28405,22
527,30	28613,81
527,50	28807,85
527,70	28756,45
527,90	28759,63
528,10	28825,36
528,30	28959,10
528,50	28960,33
528,70	28997,39
528,90	29214,48
529,10	29220,32
529,30	29175,16
529,50	29465,36
529,70	29269,36
529,90	29548,09
530,10	29596,83
530,29	29423,88
530,49	29733,95
530,69	29822,62
530,89	29898,30
531,09	29749,20
531,29	29765,49
531,49	29892,15
531,69	29925,02
531,89	29974,28
532,09	30114,97
532,29	29952,46
532,49	30058,65
532,69	30318,13
532,89	30280,34
533,09	30338,81
533,29	30500,60
533,49	30281,68
533,68	30457,90
533,88	30877,53
534,08	30618,16
534,28	30460,57
534,48	30582,93
534,68	30694,34
534,88	30549,55
535,08	30866,68
535,28	30839,54
535,48	30913,17
535,68	30960,17
535,88	31026,93
536,08	31134,14
536,27	31155,85
536,47	30992,63
536,67	31601,39
536,87	31240,94
537,07	31057,86
537,27	31463,76
537,47	31435,91
537,67	31329,93
537,87	31486,60
538,07	31840,79
538,27	31554,59
538,46	31729,79
538,66	31612,65
538,86	31356,24
539,06	31907,87
539,26	31791,54
539,46	31647,36
539,66	31685,76
539,86	31787,34
540,06	31923,43
540,25	31663,03
540,45	31950,97
540,65	31842,53
540,85	31957,32
541,05	32105,60
541,25	32077,03
541,45	32196,42
541,65	32069,86
541,85	32175,84
542,04	32187,00
542,24	32238,71
542,44	32433,78
542,64	32357,39
542,84	32353,61
543,04	32290,94
543,24	32320,02
543,43	32364,77
543,63	32468,50
543,83	32343,37
544,03	32329,54
544,23	32433,68
544,43	32577,86
544,63	32408,18
544,82	32811,12
545,02	32482,32
545,22	32803,24
545,42	32321,04
545,62	32883,93
545,82	32782,96
546,02	32738,93
546,21	32792,08
546,41	32824,84
546,61	32502,70
546,81	33005,27
547,01	32568,95
547,21	32993,08
547,40	32640,63
547,60	32915,36
547,80	32647,80
548,00	33046,95
548,20	32861,09
548,40	32688,86
548,59	33050,32
548,79	32996,87
548,99	33061,90
549,19	32800,78
549,39	32988,58
549,59	33177,09
549,78	32902,36
549,98	33124,05
550,18	33052,37
550,38	33180,17
550,58	33145,25
550,77	33239,56
550,97	33181,70
551,17	32905,53
551,37	33345,64
551,57	33161,02
551,76	33096,30
551,96	32990,93
552,16	33041,01
552,36	33259,22
552,56	33133,06
552,75	33342,98
552,95	33255,22
553,15	33372,47
553,35	33389,16
553,55	33001,99
553,74	33461,86
553,94	33135,21
554,14	33123,44
554,34	33169,41
554,54	33331,82
554,73	33576,96
554,93	33444,97
555,13	33672,19
555,33	33344,62
555,53	33661,03
555,72	33350,04
555,92	33444,76
556,12	33546,24
556,32	33438,21
556,51	33496,68
556,71	33592,22
556,91	33386,09
557,11	33520,95
557,30	33599,79
557,50	33597,64
557,70	33413,22
557,90	33707,82
558,10	33604,50
558,29	33482,65
558,49	33780,63
558,69	33636,45
558,89	33458,38
559,08	33653,55
559,28	33564,36
559,48	33593,04
559,68	33722,16
559,87	33829,88
560,07	33695,74
560,27	33825,69
560,47	33716,22
560,66	33914,87
560,86	33697,18
561,06	33666,76
561,25	33936,79
561,45	33874,84
561,65	33963,00
561,85	33855,28
562,04	33815,14
562,24	33946,82
562,44	34115,78
562,64	33916,00
562,83	34096,22
563,03	33945,49
563,23	34074,10
563,42	33914,98
563,62	34268,15
563,82	33799,37
564,02	34166,77
564,21	33998,12
564,41	34009,70
564,61	34166,88
564,80	34058,44
565,00	34174,66
565,20	34043,08
565,40	34073,18
565,59	34169,54
565,79	34380,38
565,99	34436,49
566,18	34291,60
566,38	34107,28
566,58	34270,61
566,78	34203,02
566,97	34491,28
567,17	34418,06
567,37	34636,17
567,56	34448,58
567,76	34410,48
567,96	34625,83
568,15	34453,39
568,35	34426,25
568,55	34629,31
568,74	34516,16
568,94	34637,60
569,14	34548,82
569,33	34455,44
569,53	34526,91
569,73	34784,85
569,92	34489,74
570,12	34531,72
570,32	34683,89
570,52	34576,47
570,71	34737,24
570,91	34599,61
571,11	34870,76
571,30	34677,54
571,50	34957,70
571,70	35005,11
571,89	34804,51
572,09	34897,29
572,28	34942,03
572,48	34997,12
572,68	34926,47
572,87	35219,12
573,07	35323,98
573,27	34977,26
573,46	35136,08
573,66	35234,59
573,86	35105,15
574,05	35393,00
574,25	35127,07
574,45	35187,18
574,64	35325,21
574,84	35309,23
575,04	35348,96
575,23	35497,65
575,43	35636,29
575,62	35537,28
575,82	35403,85
576,02	35249,43
576,21	35531,34
576,41	35677,97
576,61	35640,29
576,80	35600,66
577,00	35525,70
577,19	35593,80
577,39	35915,02
577,59	35720,26
577,78	35799,72
577,98	36004,93
578,18	35737,36
578,37	35821,02
578,57	36080,40
578,76	35970,01
578,96	35739,41
579,16	35971,34
579,35	36212,08
579,55	35916,46
579,74	35768,18
579,94	35857,78
580,14	36211,16
580,33	36295,54
580,53	36322,77
580,72	36130,47
580,92	36394,56
581,12	36152,69
581,31	36331,78
581,51	36449,95
581,70	36256,52
581,90	36618,09
582,10	36346,43
582,29	36757,35
582,49	36473,50
582,68	36820,63
582,88	36826,47
583,07	36688,03
583,27	36708,71
583,47	36844,70
583,66	36899,99
583,86	36632,94
584,05	36871,63
584,25	36805,28
584,44	36972,29
584,64	36850,74
584,84	36940,75
585,03	36957,64
585,23	36873,27
585,42	37100,80
585,62	36764,73
585,81	37112,98
586,01	37062,60
586,20	37208,32
586,40	37337,34
586,60	37055,54
586,79	37337,64
586,99	37252,14
587,18	37409,12
587,38	37419,15
587,57	37200,33
587,77	37426,94
587,96	37435,74
588,16	37284,91
588,35	37421,61
588,55	37591,49
588,75	37376,76
588,94	37482,13
589,14	37643,10
589,33	37296,17
589,53	37727,07
589,72	37318,80
589,92	37859,57
590,11	37459,70
590,31	37661,33
590,50	37765,47
590,70	37521,45
590,89	37949,27
591,09	37643,51
591,28	37614,12
591,48	37851,99
591,67	37476,70
591,87	37798,74
592,06	37796,59
592,26	37776,73
592,45	37760,96
592,65	38007,13
592,84	37992,69
593,04	37899,50
593,23	37826,39
593,43	38153,97
593,62	38012,96
593,82	37854,35
594,01	37757,68
594,21	38083,62
594,40	37967,19
594,60	37889,88
594,79	37981,63
594,99	37738,74
595,18	38155,30
595,38	37899,61
595,57	38090,38
595,77	38255,34
595,96	38132,77
596,16	38057,92
596,35	37955,62
596,55	37868,79
596,74	38026,79
596,94	37938,42
597,13	37972,11
597,33	38144,65
597,52	37950,91
597,72	37953,98
597,91	38190,62
598,11	38229,74
598,30	38061,19
598,50	38417,74
598,69	37960,23
598,88	38102,77
599,08	37902,27
599,27	38095,29
599,47	37967,19
599,66	38214,18
599,86	38276,13
600,05	38238,65
600,25	38528,85
600,44	37963,81
600,64	38235,68
600,83	38260,25
601,02	38481,95
601,22	38258,82
601,41	37952,14
601,61	38203,22
601,80	38224,42
602,00	38416,21
602,19	37980,09
602,38	38067,44
602,58	37863,05
602,77	37953,37
602,97	38223,39
603,16	38498,84
603,36	37865,92
603,55	38391,12
603,74	37917,73
603,94	38283,91
604,13	38328,04
604,33	38161,85
604,52	37947,63
604,72	38119,15
604,91	37973,33
605,10	38345,65
605,30	37805,91
605,49	37922,44
605,69	38280,32
605,88	37917,22
606,07	38354,67
606,27	38205,98
606,46	38020,44
606,66	38185,91
606,85	37756,97
607,04	38014,60
607,24	37814,21
607,43	38210,39
607,63	37894,79
607,82	38009,48
608,01	38167,89
608,21	37830,08
608,40	37983,98
608,60	37750,00
608,79	37723,07
608,98	37466,36
609,18	38097,34
609,37	37596,92
609,57	37399,19
609,76	37468,41
609,95	37533,02
610,15	37595,28
610,34	37558,11
610,53	37412,40
610,73	37235,04
610,92	37382,60
611,11	37352,59
611,31	37322,08
611,50	37253,58
611,70	37319,11
611,89	37335,19
612,08	37346,96
612,28	37302,62
612,47	37344,71
612,66	37356,49
612,86	37336,11
613,05	37261,05
613,24	37192,24
613,44	37241,49
613,63	37318,60
613,82	37431,95
614,02	37434,00
614,21	37119,54
614,41	37266,27
614,60	37498,10
614,79	37093,32
614,99	37222,75
615,18	37486,02
615,37	37311,02
615,57	37949,07
615,76	37373,07
615,95	37306,31
616,15	37429,70
616,34	37747,34
616,53	37717,65
616,73	37916,61
616,92	37723,38
617,11	37798,85
617,30	37627,84
617,50	37608,59
617,69	37901,45
617,88	38136,45
618,08	37837,04
618,27	38278,07
618,46	38277,87
618,66	38384,77
618,85	38507,14
619,04	38518,71
619,24	38806,76
619,43	38903,83
619,62	38925,84
619,82	39093,47
620,01	39091,12
620,20	39358,58
620,39	39266,32
620,59	39322,43
620,78	39535,12
620,97	39743,29
621,17	39817,12
621,36	40183,30
621,55	39989,05
621,74	40179,00
621,94	40071,79
622,13	40392,50
622,32	40395,06
622,52	40488,03
622,71	40733,07
622,90	40605,28
623,09	40754,78
623,29	40986,31
623,48	40998,80
623,67	41230,12
623,86	41185,88
624,06	41378,70
624,25	41443,41
624,44	41610,42
624,64	41447,00
624,83	41647,39
625,02	41187,93
625,21	41700,53
625,41	41927,45
625,60	41831,81
625,79	41709,75
625,98	41741,70
626,18	42287,79
626,37	41645,85
626,56	41652,20
626,75	42291,27
626,95	41738,12
627,14	41902,67
627,33	42201,78
627,52	42160,82
627,72	42063,95
627,91	42042,65
628,10	42345,85
628,29	42342,37
628,49	42042,03
628,68	42017,25
628,87	42082,28
629,06	42583,72
629,25	42342,88
629,45	42131,63
629,64	42279,09
629,83	42527,10
630,02	42218,57
630,22	42066,61
630,41	42395,82
630,60	42170,24
630,79	42138,19
630,98	42248,26
631,18	42196,76
631,37	42174,74
631,56	42476,20
631,75	42596,11
631,94	42500,27
632,14	42352,51
632,33	42208,33
632,52	42391,72
632,71	42233,72
632,90	42434,73
633,10	42329,06
633,29	42126,92
633,48	42221,54
633,67	42165,73
633,86	42309,91
634,06	42476,61
634,25	42103,78
634,44	42333,46
634,63	41957,86
634,82	42253,79
635,02	41914,45
635,21	42183,24
635,40	42207,92
635,59	41944,14
635,78	42209,25
635,97	42111,46
636,17	41629,06
636,36	42228,19
636,55	41994,32
636,74	42385,38
636,93	41708,01
637,12	42069,48
637,32	42439,13
637,51	41790,95
637,70	41891,61
637,89	42026,67
638,08	42073,78
638,27	42049,00
638,47	41820,85
638,66	41977,93
638,85	41848,50
639,04	42042,65
639,23	41677,09
639,42	41931,24
639,62	41959,60
639,81	41917,52
640,00	41881,68
640,19	41659,78
640,38	41654,15
640,57	41838,06
640,76	41795,05
640,95	41893,04
641,15	41747,02
641,34	41898,68
641,53	41851,47
641,72	41620,15
641,91	41874,82
642,10	41677,80
642,29	41687,84
642,49	41940,45
642,68	41624,45
642,87	42070,30
643,06	42132,35
643,25	42140,34
643,44	41840,10
643,63	41882,39
643,82	41921,92
644,01	42134,81
644,21	41920,28
644,40	42067,74
644,59	41791,87
644,78	42026,57
644,97	41608,48
645,16	42042,65
645,35	41771,80
645,54	42119,86
645,73	41631,83
645,92	42096,41
646,12	41729,62
646,31	41689,89
646,50	41730,33
646,69	42106,95
646,88	41678,31
647,07	41854,54
647,26	41696,23
647,45	41771,91
647,64	41514,37
647,83	41941,99
648,02	41716,00
648,22	41630,39
648,41	41688,86
648,60	41619,44
648,79	41529,22
648,98	41734,53
649,17	41392,21
649,36	41700,23
649,55	41500,76
649,74	41188,95
649,93	41267,39
650,12	41585,34
650,31	41548,58
650,50	41136,83
650,69	41601,52
650,88	41806,11
651,08	41249,37
651,27	41614,52
651,46	41500,45
651,65	41239,95
651,84	41036,79
652,03	41259,61
652,22	41295,24
652,41	41420,88
652,60	41439,52
652,79	41375,52
652,98	41197,25
653,17	41272,51
653,36	41223,15
653,55	41239,13
653,74	41283,57
653,93	41348,49
654,12	40933,67
654,31	41322,99
654,50	41381,67
654,69	41085,73
654,88	41140,83
655,07	41103,55
655,26	40851,14
655,45	41083,48
655,64	41032,69
655,83	41242,92
656,02	41037,30
656,21	41061,16
656,40	40884,73
656,59	41203,08
656,78	40859,54
656,97	40928,66
657,17	41162,12
657,36	40784,89
657,55	40590,54
657,74	41045,39
657,93	40674,30
658,12	40797,59
658,31	40805,37
658,50	40917,90
658,69	40728,77
658,87	41190,18
659,06	40626,07
659,25	40720,27
659,44	40640,10
659,63	40669,69
659,82	40801,48
660,01	40417,18
660,20	40697,34
660,39	40659,65
660,58	40725,09
660,77	40529,30
660,96	40553,16
661,15	40140,39
661,34	40725,91
661,53	40611,22
661,72	40436,43
661,91	40652,08
662,10	40277,30
662,29	40315,19
662,48	40147,05
662,67	40349,80
662,86	40107,01
663,05	40399,77
663,24	40502,47
663,43	40232,76
663,62	40145,41
663,81	40218,22
664,00	40318,05
664,19	40016,69
664,38	40128,41
664,57	39943,28
664,76	40182,79
664,94	40124,93
665,13	39735,30
665,32	39701,21
665,51	40152,48
665,70	39633,01
665,89	39908,36
666,08	39622,56
666,27	39889,31
666,46	39635,77
666,65	39579,56
666,84	39619,08
667,03	39895,15
667,22	39428,83
667,41	39644,37
667,60	39745,75
667,78	39565,63
667,97	39733,26
668,16	39697,31
668,35	39635,98
668,54	39383,46
668,73	39661,17
668,92	39376,09
669,11	39729,67
669,30	39463,13
669,49	39357,97
669,68	39274,72
669,86	39420,84
670,05	39246,86
670,24	38976,02
670,43	38992,10
670,62	39088,15
670,81	39088,15
671,00	39074,83
671,19	39051,79
671,38	38768,46
671,57	38798,05
671,75	39017,59
671,94	38854,06
672,13	38868,09
672,32	38996,91
672,51	38726,27
672,70	39051,79
672,89	38852,83
673,08	38882,22
673,26	38965,58
673,45	38487,78
673,64	38897,17
673,83	38725,35
674,02	38720,84
674,21	38811,47
674,40	38749,92
674,59	38677,84
674,77	38867,37
674,96	38537,86
675,15	38590,49
675,34	38523,32
675,53	38405,25
675,72	38209,06
675,91	38373,00
676,09	38335,21
676,28	38519,22
676,47	38111,26
676,66	38143,52
676,85	38318,62
677,04	38516,15
677,22	38202,09
677,41	38224,01
677,60	38197,07
677,79	37975,28
677,98	37991,36
678,17	37886,30
678,36	38125,81
678,54	38065,39
678,73	37935,14
678,92	37927,66
679,11	38055,05
679,30	37856,09
679,48	37984,80
679,67	37778,67
679,86	38152,02
680,05	37788,71
680,24	37729,32
680,43	37666,34
680,61	37654,57
680,80	37582,58
680,99	37648,42
681,18	37623,54
681,37	37436,36
681,55	37812,98
681,74	37178,72
681,93	37665,93
682,12	37446,80
682,31	37434,92
682,49	37348,91
682,68	37408,20
682,87	37409,63
683,06	37493,80
683,25	37214,56
683,43	37615,76
683,62	37151,28
683,81	37501,58
684,00	37187,53
684,19	37062,70
684,37	36987,65
684,56	36963,69
684,75	36922,93
684,94	37009,56
685,12	36944,23
685,31	37164,39
685,50	37057,79
685,69	37152,41
685,88	36925,18
686,06	36832,51
686,25	36853,71
686,44	37034,14
686,63	36837,63
686,81	36994,92
687,00	36927,74
687,19	36922,32
687,38	36694,79
687,56	36711,99
687,75	36603,96
687,94	36865,28
688,13	36441,15
688,31	36664,07
688,50	36547,74
688,69	36493,57
688,88	36479,14
689,06	36296,87
689,25	36466,64
689,44	36339,98
689,63	36090,64
689,81	36289,19
690,00	36138,15
690,19	36236,04
690,38	36209,83
690,56	35946,87
690,75	36081,01
690,94	35779,24
691,13	36124,74
691,31	36068,42
691,50	36036,26
691,69	35951,07
691,87	35971,75
692,06	35877,65
692,25	36047,01
692,44	35841,91
692,62	35812,11
692,81	35885,74
693,00	35774,84
693,18	35947,59
693,37	35810,06
693,56	35766,44
693,75	35784,57
693,93	36038,11
694,12	35820,30
694,31	35691,18
694,49	35454,03
694,68	35836,79
694,87	35478,19
695,05	35910,11
695,24	35846,42
695,43	35627,49
695,62	35682,89
695,80	35701,32
695,99	35578,13
696,18	35649,50
696,36	35780,27
696,55	35654,62
696,74	35535,64
696,92	35633,12
697,11	35535,94
697,30	35552,94
697,48	35449,21
697,67	35601,99
697,86	35324,90
698,04	35601,07
698,23	35303,81
698,42	35555,40
698,60	35227,01
698,79	35417,78
698,98	35081,81
699,16	35139,25
699,35	35236,43
699,54	35110,89
699,72	35024,87
699,91	35486,59
700,10	35178,06
700,28	35021,49
700,47	34938,76
700,66	35070,65
700,84	34880,80
701,03	34839,43
701,21	34957,80
701,40	35169,46
701,59	34617,63
701,77	34834,11
701,96	34807,17
702,15	34931,90
702,33	34831,14
702,52	34844,86
702,71	34525,89
702,89	34761,71
703,08	34648,35
703,26	34736,62
703,45	34839,12
703,64	34742,66
703,82	34621,01
704,01	34649,89
704,20	34388,06
704,38	34595,72
704,57	34287,20
704,75	34537,35
704,94	34460,66
705,13	34510,83
705,31	34664,23
705,50	34672,73
705,68	34513,91
705,87	34533,36
706,06	34423,18
706,24	34781,47
706,43	34333,07
706,61	34400,14
706,80	34241,73
706,99	34423,28
707,17	34346,48
707,36	34321,60
707,54	34061,30
707,73	34387,85
707,92	34301,12
708,10	34140,46
708,29	34161,04
708,47	34209,17
708,66	34067,65
708,84	34120,18
709,03	33864,29
709,22	33977,13
709,40	33826,81
709,59	34130,42
709,77	33900,33
709,96	34033,86
710,14	33906,38
710,33	33936,69
710,52	33859,78
710,70	34189,81
710,89	33691,75
711,07	33785,24
711,26	33975,49
711,44	33796,19
711,63	33673,62
711,81	33707,82
712,00	33845,86
712,19	33640,04
712,37	33561,19
712,56	33748,07
712,74	33409,44
712,93	33577,37
713,11	33453,88
713,30	33346,77
713,48	33504,87
713,67	33645,16
713,85	33313,80
714,04	33505,28
714,22	33455,11
714,41	33577,88
714,59	33365,71
714,78	33438,11
714,97	33434,83
715,15	33096,51
715,34	33307,75
715,52	33401,76
715,71	33374,42
715,89	33113,09
716,08	33329,46
716,26	33332,74
716,45	33038,04
716,63	33429,30
716,82	32942,81
717,00	33234,64
717,19	33013,67
717,37	33174,23
717,56	32968,51
717,74	33031,07
717,93	33004,25
718,11	32987,35
718,30	32897,75
718,48	32957,04
718,67	33027,18
718,85	32706,68
719,04	32584,21
719,22	32680,46
719,41	32627,73
719,59	32737,09
719,78	32403,58
719,96	32474,74
720,15	32460,41
720,33	32692,65
720,52	32194,38
720,70	32308,04
720,88	32211,17
721,07	32370,91
721,25	32310,39
721,44	32396,51
721,62	32004,02
721,81	32435,01
721,99	32031,87
722,18	32106,31
722,36	32115,94
722,55	32065,05
722,73	31683,10
722,92	31930,60
723,10	31769,93
723,28	31959,17
723,47	31592,99
723,65	31554,80
723,84	31691,19
724,02	31578,35
724,21	31518,96
724,39	31509,43
724,58	31274,74
724,76	31743,52
724,94	31225,69
725,13	31576,09
725,31	31154,32
725,50	31366,28
725,68	31342,83
725,87	31128,20
726,05	31015,57
726,23	31074,14
726,42	30966,72
726,60	30906,31
726,79	30892,58
726,97	30932,83
727,16	30607,20
727,34	30755,27
727,52	30534,19
727,71	30469,27
727,89	30644,06
728,08	30714,31
728,26	30909,58
728,44	30702,84
728,63	30925,66
728,81	30410,29
729,00	30504,60
729,18	30642,94
729,36	30478,38
729,55	30387,04
729,73	30475,00
729,92	30452,27
730,10	29968,44
730,28	30730,28
730,47	30353,87
730,65	30539,11
730,84	30484,73
731,02	30454,01
731,20	30488,11
731,39	30477,26
731,57	30297,55
731,75	30776,06
731,94	30120,91
732,12	30279,12
732,31	30064,90
732,49	30472,14
732,67	30209,69
732,86	30235,70
733,04	30077,08
733,22	30288,13
733,41	29951,95
733,59	30299,49
733,78	30141,18
733,96	29923,08
734,14	30231,60
734,33	30115,69
734,51	29863,17
734,69	29924,82
734,88	29855,80
735,06	30015,23
735,24	29793,23
735,43	29870,03
735,61	29948,88
735,79	29733,23
735,98	29810,13
736,16	29925,43
736,34	29621,72
736,53	29832,35
736,71	29607,79
736,89	29579,53
737,08	29180,38
737,26	29526,90
737,44	29389,17
737,63	29418,87
737,81	29537,85
737,99	29550,35
738,18	29420,61
738,36	29582,09
738,54	29336,23
738,73	29358,35
738,91	29386,61
739,09	29486,04
739,28	29022,69
739,46	29233,93
739,64	29235,47
739,82	29049,52
740,01	28992,48
740,19	29360,81
740,37	29039,79
740,56	28913,02
740,74	28873,49
740,92	28830,89
741,11	28940,56
741,29	29001,39
741,47	28776,83
741,65	28691,73
741,84	28826,39
742,02	28733,92
742,20	28638,18
742,39	28362,52
742,57	28542,23
742,75	28493,90
742,93	28426,63
743,12	28371,23
743,30	28297,71
743,48	28440,96
743,67	28280,61
743,85	28236,57
744,03	28344,60
744,21	28155,17
744,40	28154,96
744,58	28178,51
744,76	28027,68
744,94	27981,40
745,13	28085,84
745,31	28125,78
745,49	27743,22
745,67	27899,48
745,86	27899,17
746,04	28029,11
746,22	27834,56
746,40	27792,37
746,59	27683,11
746,77	27900,30
746,95	27679,94
747,13	27709,43
747,32	27458,45
747,50	27593,51
747,68	27504,83
747,86	27527,26
748,05	27335,26
748,23	27543,54
748,41	27265,32
748,59	27376,22
748,77	27124,63
748,96	27179,11
749,14	27023,25
749,32	27244,13
749,50	27004,00
749,69	27043,84
749,87	26908,26
750,05	26989,57
750,23	26912,25
750,41	26826,75
750,60	26890,85
750,78	26809,45
750,96	26690,36
751,14	26612,94
751,32	26647,66
751,51	26816,31
751,69	26679,81
751,87	26374,56
752,05	26668,14
752,23	26539,42
752,42	26430,47
752,60	26522,83
752,78	26285,27
752,96	26543,11
753,14	26346,09
753,33	26434,16
753,51	26231,10
753,69	26428,93
753,87	26146,62
754,05	26445,32
754,23	26072,89
754,42	26383,98
754,60	26170,38
754,78	26478,70
754,96	26180,62
755,14	26384,29
755,32	26186,25
755,51	26501,23
755,69	26248,00
755,87	26555,50
756,05	26247,28
756,23	26596,46
756,41	26342,71
756,60	26637,62
756,78	26552,43
756,96	26522,22
757,14	26534,10
757,32	26573,73
757,50	26735,62
757,68	26601,37
757,87	26698,04
758,05	26891,57
758,23	26745,55
758,41	26915,94
758,59	26783,54
758,77	26992,94
758,95	27075,89
759,14	26931,51
759,32	27245,87
759,50	27457,94
759,68	27307,82
759,86	27482,00
760,04	27599,96
760,22	27364,86
760,40	27622,70
760,59	27759,81
760,77	27745,88
760,95	27920,57
761,13	27871,22
761,31	27832,61
761,49	28039,97
761,67	28340,51
761,85	27898,35
762,03	28065,47
762,22	28286,75
762,40	28301,60
762,58	28302,31
762,76	28470,04
762,94	28437,07
763,12	28513,46
763,30	28577,05
763,48	28593,53
763,66	28528,41
763,84	28866,22
764,02	28777,03
764,21	28889,77
764,39	28949,37
764,57	29119,04
764,75	29089,14
764,93	28943,53
765,11	29012,45
765,29	29284,11
765,47	29081,98
765,65	29197,89
765,83	29099,59
766,01	29267,73
766,19	29396,75
766,37	29270,59
766,56	29149,76
766,74	29430,54
766,92	29197,28
767,10	29307,76
767,28	29262,20
767,46	29149,15
767,64	29294,86
767,82	29206,90
768,00	29050,13
768,18	29184,58
768,36	29148,94
768,54	28963,91
768,72	29063,34
768,90	29034,36
769,08	28916,70
769,26	28823,42
769,44	28902,88
769,62	28955,41
769,80	28644,73
769,98	28804,68
770,16	28664,60
770,34	28436,46
770,52	28437,48
770,71	28465,95
770,89	28409,52
771,07	28587,90
771,25	28306,82
771,43	28421,51
771,61	28257,67
771,79	28125,88
771,97	28104,58
772,15	27998,60
772,33	27893,74
772,51	27740,25
772,69	27699,80
772,87	27580,71
773,05	27404,89
773,23	27626,79
773,41	27347,65
773,59	27358,20
773,77	27230,10
773,95	27314,07
774,13	26977,07
774,31	27224,88
774,49	26954,85
774,67	26922,70
774,85	26719,13
775,03	26666,60
775,21	26553,45
775,39	26783,34
775,57	26413,37
775,75	26437,23
775,93	26311,69
776,10	26176,42
776,28	25962,82
776,46	25848,95
776,64	25825,30
776,82	25906,50
777,00	26024,67
777,18	25570,12
777,36	25247,05
777,54	25701,91
777,72	25233,23
777,90	25276,85
778,08	25213,57
778,26	24957,16
778,44	25088,95
778,62	25012,35
778,80	24797,22
778,98	24854,15
779,16	24558,32
779,34	24620,27
779,52	24384,75
779,70	24509,58
779,88	24105,21
780,05	24331,30
780,23	23896,42
780,41	24160,71
780,59	23935,02
780,77	23870,92
780,95	23795,96
781,13	23773,13
781,31	23652,09
781,49	23548,16
781,67	23472,18
781,85	23447,09
782,03	23183,83
782,21	23138,67
782,39	23189,56
782,56	22988,14
782,74	22977,29
782,92	23011,49
783,10	22782,53
783,28	22732,15
783,46	22770,34
783,64	22729,89
783,82	22561,45
784,00	22476,46
784,18	22391,16
784,35	22493,35
784,53	22291,73
784,71	22271,46
784,89	22152,88
785,07	22181,34
785,25	22194,45
785,43	22157,28
785,61	21845,17
785,79	22152,88
785,96	21744,10
786,14	21765,91
786,32	21714,20
786,50	21604,94
786,68	21439,57
786,86	21494,15
787,04	21428,72
787,22	21358,16
787,39	21223,61
787,57	21357,75
787,75	21124,49
787,93	21120,80
788,11	21067,97
788,29	21043,80
788,47	20870,75
788,65	20906,59
788,82	20665,54
789,00	20865,01
789,18	20670,87
789,36	20697,90
789,54	20363,98
789,72	20439,24
789,89	20410,88
790,07	20381,28
790,25	20339,20
790,43	20279,50
790,61	20250,72
790,79	20122,52
790,96	20103,68
791,14	20023,91
791,32	19811,95
791,50	20090,78
791,68	19755,53
791,86	19723,48
792,03	19496,36
792,21	19730,95
792,39	19610,84
792,57	19716,92
792,75	19392,93
792,93	19708,52
793,10	19421,60
793,28	19531,99
793,46	19389,76
793,64	19416,69
793,82	19203,29
793,99	19411,77
794,17	19029,11
794,35	19225,41
794,53	18964,91
794,71	18952,93
794,88	18822,27
795,06	18896,30
795,24	18681,67
795,42	18760,72
795,60	18659,04
795,77	18686,18
795,95	18593,00
796,13	18577,84
796,31	18500,74
796,49	18553,98
796,66	18296,66
796,84	18325,84
797,02	18255,49
797,20	18333,62
797,37	18298,09
797,55	18289,08
797,73	18123,91
797,91	18235,63
798,08	18091,96
798,26	18159,75
798,44	17857,37
798,62	17928,94
798,80	17883,78
798,97	17849,58
799,15	17575,36
799,33	17738,58
799,51	17767,56
799,68	17711,55
799,86	17785,99
800,04	17541,06
800,22	17385,21
800,39	17520,17
800,57	17425,35
800,75	17510,85
800,93	17301,04
801,10	17429,34
801,28	17268,78
801,46	17204,58
801,63	17281,37
801,81	17365,14
801,99	17104,64
802,17	17161,47
802,34	16976,94
802,52	17052,41
802,70	16958,51
802,88	17009,81
803,05	16877,92
803,23	16826,21
803,41	16687,67
803,58	16727,81
803,76	16768,36
803,94	16739,38
804,12	16781,36
804,29	16670,26
804,47	16620,29
804,65	16622,95
804,82	16357,43
805,00	16393,58
805,18	16502,94
805,35	16498,64
805,53	16240,90
805,71	16330,91
805,89	16379,96
806,06	16242,95
806,24	16131,65
806,42	16185,81
806,59	16123,86
806,77	16255,44
806,95	16062,12
807,12	16055,87
807,30	16046,04
807,48	15952,96
807,65	15811,96
807,83	15860,19
808,01	15709,46
808,18	15786,97
808,36	15662,87
808,54	15686,52
808,71	15580,64
808,89	15547,87
809,07	15454,59
809,24	15566,00
809,42	15570,71
809,60	15508,04
809,77	15362,63
809,95	15384,75
810,13	15235,45
810,30	15319,32
810,48	15244,26
810,66	15235,56
810,83	15212,72
811,01	15213,75
811,18	14996,46
811,36	15180,98
811,54	15059,02
811,71	15065,78
811,89	15040,49
812,07	15028,20
812,24	15021,34
812,42	14957,03
812,59	14828,83
812,77	14731,04
812,95	14860,06
813,12	14817,05
813,30	14809,27
813,48	14807,74
813,65	14651,27
813,83	14697,96
814,00	14424,36
814,18	14434,70
814,36	14523,58
814,53	14472,07
814,71	14471,77
814,88	14435,01
815,06	14433,88
815,24	14353,50
815,41	14297,48
815,59	14307,52
815,76	14125,56
815,94	14156,58
816,12	14044,87
816,29	14147,06
816,47	14013,64
816,64	14103,75
816,82	14043,95
817,00	14018,24
817,17	13875,60
817,35	14111,02
817,52	13887,28
817,70	14011,89
817,87	13868,95
818,05	13864,24
818,23	13647,46
818,40	13796,55
818,58	13583,26
818,75	13697,02
818,93	13616,53
819,10	13793,27
819,28	13572,20
819,46	13642,03
819,63	13522,12
819,81	13579,36
819,98	13476,15
820,16	13455,67
820,33	13345,08
820,51	13385,42
820,68	13305,86
820,86	13321,83
821,03	13263,46
821,21	13080,38
821,39	13199,47
821,56	13221,28
821,74	13053,04
821,91	13079,05
822,09	13054,78
822,26	13046,79
822,44	12979,21
822,61	13005,83
822,79	12912,55
822,96	12911,32
823,14	12865,13
823,31	12719,01
823,49	12758,44
823,66	12806,67
823,84	12698,74
824,01	12712,46
824,19	12582,41
824,36	12741,95
824,54	12697,00
824,71	12514,63
824,89	12568,08
825,06	12491,38
825,24	12487,18
825,41	12468,85
825,59	12364,71
825,76	12451,85
825,94	12354,06
826,11	12354,78
826,29	12371,98
826,46	12250,95
826,64	12263,34
826,81	12148,76
826,99	12096,33
827,16	12069,91
827,34	12027,62
827,51	11969,97
827,69	11914,37
827,86	11947,85
828,04	11859,68
828,21	11873,51
828,39	11823,03
828,56	11832,86
828,74	11729,23
828,91	11729,95
829,09	11769,37
829,26	11629,29
829,43	11621,71
829,61	11661,24
829,78	11506,21
829,96	11648,13
830,13	11530,06
830,31	11625,70
830,48	11448,04
830,66	11502,21
830,83	11417,84
831,01	11400,22
831,18	11417,02
831,35	11365,71
831,53	11305,09
831,70	11380,15
831,88	11247,65
832,05	11265,98
832,23	11186,93
832,40	11241,91
832,57	11227,48
832,75	11099,89
832,92	10988,89
833,10	11188,77
833,27	11021,76
833,45	10970,97
833,62	10928,88
833,79	11025,03
833,97	10967,38
834,14	10864,17
834,32	10809,49
834,49	10883,62
834,66	10825,46
834,84	10844,30
835,01	10804,57
835,19	10756,34
835,36	10652,00
835,53	10751,32
835,71	10712,62
835,88	10690,19
836,06	10648,11
836,23	10626,19
836,40	10552,88
836,58	10681,28
836,75	10551,65
836,93	10566,49
837,10	10464,71
837,27	10450,78
837,45	10463,07
837,62	10336,00
837,79	10294,01
837,97	10408,70
838,14	10290,33
838,32	10352,17
838,49	10212,09
838,66	10241,28
838,84	10204,72
839,01	10144,20
839,18	10137,65
839,36	10096,49
839,53	10016,21
839,70	10049,79
839,88	9985,18
840,05	9986,20
840,23	9897,63
840,40	9925,99
840,57	9868,75
840,75	9876,02
840,92	9808,34
841,09	9787,45
841,27	9805,57
841,44	9752,84
841,61	9780,28
841,79	9717,71
841,96	9683,72
842,13	9686,28
842,31	9660,37
842,48	9568,42
842,65	9605,90
842,83	9596,99
843,00	9545,48
843,17	9576,61
843,35	9512,41
843,52	9463,77
843,69	9423,22
843,86	9522,95
844,04	9394,95
844,21	9331,77
844,38	9409,60
844,56	9383,28
844,73	9268,08
844,90	9313,75
845,08	9232,55
845,25	9283,44
845,42	9167,83
845,60	9196,61
845,77	9078,13
845,94	9076,29
846,11	9133,12
846,29	9067,28
846,46	9008,60
846,63	9038,51
846,81	9011,88
846,98	8956,18
847,15	9000,72
847,32	8984,34
847,50	8911,63
847,67	8941,43
847,84	8863,51
848,01	8914,81
848,19	8830,74
848,36	8794,29
848,53	8744,72
848,71	8763,26
848,88	8693,22
849,05	8648,78
849,22	8629,01
849,40	8686,25
849,57	8618,88
849,74	8669,97
849,91	8614,99
850,09	8533,78
850,26	8529,89
850,43	8570,65
850,60	8489,24
850,78	8531,12
850,95	8457,70
851,12	8443,78
851,29	8496,92
851,47	8459,13
851,64	8383,77
851,81	8405,68
851,98	8350,90
852,15	8416,33
852,33	8288,64
852,50	8264,78
852,67	8262,94
852,84	8278,20
853,02	8224,34
853,19	8192,49
853,36	8143,13
853,53	8166,28
853,70	8234,58
853,88	8177,33
854,05	8133,61
854,22	8075,35
854,39	8039,40
854,56	8075,04
854,74	7939,46
854,91	8055,17
855,08	7938,64
855,25	7884,99
855,42	7914,99
855,60	7918,88
855,77	7885,70
855,94	7890,72
856,11	7767,23
856,28	7839,32
856,46	7800,71
856,63	7750,84
856,80	7744,29
856,97	7776,44
857,14	7682,44
857,31	7686,54
857,49	7679,37
857,66	7667,90
857,83	7541,34
858,00	7562,43
858,17	7587,31
858,34	7572,06
858,52	7551,48
858,69	7496,28
858,86	7434,33
859,03	7500,07
859,20	7425,12
859,37	7461,88
859,55	7357,74
859,72	7461,26
859,89	7312,48
860,06	7351,49
860,23	7319,03
860,40	7350,16
860,57	7305,10
860,75	7284,52
860,92	7238,85
861,09	7251,86
861,26	7247,25
861,43	7215,10
861,60	7149,87
861,77	7156,22
861,95	7108,19
862,12	7180,49
862,29	7088,53
862,46	7175,88
862,63	7060,99
862,80	7089,15
862,97	7043,89
863,14	7068,15
863,31	7037,03
863,49	6975,28
863,66	6980,71
863,83	6981,32
864,00	6935,14
864,17	6876,36
864,34	6866,84
864,51	6853,22
864,68	6778,57
864,85	6855,47
865,02	6714,98
865,20	6761,37
865,37	6740,58
865,54	6771,92
865,71	6691,53
865,88	6675,56
866,05	6632,14
866,22	6695,63
866,39	6610,95
866,56	6656,72
866,73	6584,94
866,90	6624,15
867,07	6592,62
867,25	6610,23
867,42	6573,98
867,59	6521,96
867,76	6455,81
867,93	6505,99
868,10	6472,61
868,27	6434,00
868,44	6428,37
868,61	6379,01
868,78	6342,25
868,95	6357,82
869,12	6395,91
869,29	6361,81
869,46	6302,11
869,63	6294,84
869,80	6215,28
869,97	6258,49
870,14	6225,52
870,32	6252,04
870,49	6213,23
870,66	6167,56
870,83	6111,65
871,00	6123,02
871,17	6043,25
871,34	6086,97
871,51	5990,10
871,68	6053,39
871,85	5999,93
872,02	6021,03
872,19	5919,65
872,36	5968,29
872,53	5934,60
872,70	5956,11
872,87	5917,81
873,04	5836,71
873,21	5869,68
873,38	5857,60
873,55	5800,97
873,72	5805,17
873,89	5765,24
874,06	5771,69
874,23	5744,04
874,40	5729,91
874,57	5731,34
874,74	5676,97
874,91	5621,37
875,08	5620,55
875,25	5589,73
875,42	5580,31
875,59	5557,37
875,76	5563,82
875,93	5522,65
876,10	5476,47
876,27	5485,38
876,44	5489,58
876,61	5421,79
876,78	5475,65
876,95	5398,45
877,12	5444,52
877,29	5366,91
877,46	5365,06
877,62	5323,49
877,79	5330,97
877,96	5270,45
878,13	5279,77
878,30	5239,73
878,47	5209,11
878,64	5230,20
878,81	5206,96
878,98	5232,36
879,15	5272,60
879,32	5171,33
879,49	5201,84
879,66	5152,89
879,83	5143,78
880,00	5147,77
880,17	5142,14
880,34	5094,53
880,51	5079,68
880,67	5111,53
880,84	5057,87
881,01	5051,72
881,18	5078,76
881,35	5014,55
881,52	5076,71
881,69	5018,65
881,86	4997,45
882,03	4978,20
882,20	4955,37
882,37	4906,22
882,54	4945,54
882,70	4870,89
882,87	4849,49
883,04	4865,67
883,21	4841,60
883,38	4825,22
883,55	4810,17
883,72	4768,80
883,89	4787,64
884,06	4742,79
884,23	4737,67
884,39	4731,22
884,56	4778,32
884,73	4728,86
884,90	4733,37
885,07	4701,21
885,24	4687,60
885,41	4699,88
885,58	4707,67
885,74	4646,43
885,91	4649,61
886,08	4677,25
886,25	4645,10
886,42	4606,70
886,59	4581,10
886,76	4563,90
886,93	4565,13
887,09	4579,26
887,26	4548,74
887,43	4493,14
887,60	4535,84
887,77	4452,18
887,94	4509,32
888,10	4476,86
888,27	4461,40
888,44	4440,10
888,61	4387,16
888,78	4398,52
888,95	4384,60
889,12	4368,21
889,28	4393,00
889,45	4352,65
889,62	4350,30
889,79	4339,44
889,96	4341,28
890,13	4312,10
890,29	4307,19
890,46	4284,15
890,63	4272,17
890,80	4264,69
890,97	4243,49
891,13	4202,33
891,30	4207,04
891,47	4214,72
891,64	4192,29
891,81	4151,34
891,98	4197,72
892,14	4112,32
892,31	4111,09
892,48	4125,53
892,65	4080,88
892,82	4063,99
892,98	4030,81
893,15	4058,77
893,32	4053,85
>>>>>End Processed Spectral Data<<<<<
