SpectraSuite Datei
++++++++++++++++++++++++++++++++++++
Datum: Mon Mar 09 10:11:29 CET 2020
Benutzer: Lichtquellen1
Dark-Spektrum vorhanden: Ja
Referenz-Spektrum vorhanden: Nein
Zahl der probierten Teilspektren: 1
Spektrometer: USB4F05832
Integrationszeit (usec): 50000 (USB4F05832)
Spektren Durchschnitt berechnet: 20 (USB4F05832)
Boxcar Glättung: 0 (USB4F05832)
Dunkelstromkorrektur: Nein (USB4F05832)
Puls/Lampe aktiviert: Nein (USB4F05832)
Correct for Detector Non-linearity: Nein (USB4F05832)
Streulichtkorrektur: Nein (USB4F05832)
Anzahl Pixel in verarbeitetem Spektrum: 3648
>>>>>Begin Processed Spectral Data<<<<<
177,54	1219,26
177,75	1219,26
177,97	1219,26
178,19	1210,14
178,41	1223,46
178,63	1277,42
178,85	1252,95
179,07	1262,16
179,29	1273,84
179,51	1241,38
179,73	1283,46
179,95	1257,66
180,17	1276,40
180,39	1303,33
180,61	1277,32
180,83	1290,83
181,05	1275,07
181,27	1275,99
181,49	1271,17
181,71	1272,30
181,92	1324,83
182,14	1277,73
182,36	1271,17
182,58	1282,64
182,80	1292,68
183,02	1317,97
183,24	1298,10
183,46	1267,90
183,68	1275,78
183,90	1287,25
184,12	1277,63
184,34	1285,10
184,56	1278,03
184,78	1274,14
185,00	1277,01
185,21	1289,61
185,43	1265,13
185,65	1270,87
185,87	1286,23
186,09	1319,30
186,31	1271,69
186,53	1278,85
186,75	1278,85
186,97	1313,46
187,19	1314,18
187,41	1259,19
187,63	1316,84
187,84	1259,30
188,06	1304,15
188,28	1270,36
188,50	1288,79
188,72	1311,21
188,94	1310,09
189,16	1260,22
189,38	1281,41
189,60	1278,55
189,82	1276,29
190,03	1295,55
190,25	1282,13
190,47	1285,20
190,69	1293,60
190,91	1258,68
191,13	1285,71
191,35	1316,84
191,57	1289,20
191,79	1277,63
192,01	1279,98
192,22	1305,99
192,44	1267,80
192,66	1292,68
192,88	1288,27
193,10	1283,05
193,32	1286,74
193,54	1306,71
193,76	1313,06
193,98	1261,55
194,19	1286,43
194,41	1285,41
194,63	1274,66
194,85	1279,67
195,07	1310,09
195,29	1254,38
195,51	1314,39
195,73	1279,37
195,94	1286,02
196,16	1271,38
196,38	1315,51
196,60	1274,45
196,82	1264,62
197,04	1270,46
197,26	1274,96
197,48	1271,89
197,69	1274,66
197,91	1268,72
198,13	1264,83
198,35	1292,06
198,57	1274,55
198,79	1309,47
199,01	1286,84
199,22	1272,30
199,44	1308,75
199,66	1271,69
199,88	1295,55
200,10	1293,50
200,32	1295,55
200,54	1291,45
200,75	1317,25
200,97	1270,87
201,19	1286,53
201,41	1293,80
201,63	1280,49
201,85	1282,44
202,06	1295,24
202,28	1278,34
202,50	1280,39
202,72	1264,62
202,94	1269,23
203,16	1277,01
203,38	1296,26
203,59	1281,31
203,81	1313,16
204,03	1257,76
204,25	1290,43
204,47	1295,85
204,69	1290,63
204,90	1264,42
205,12	1278,75
205,34	1270,97
205,56	1277,63
205,78	1265,24
206,00	1319,92
206,21	1300,56
206,43	1280,19
206,65	1260,42
206,87	1276,19
207,09	1296,26
207,30	1271,79
207,52	1292,58
207,74	1296,06
207,96	1275,37
208,18	1273,73
208,40	1256,94
208,61	1264,83
208,83	1278,44
209,05	1266,77
209,27	1261,86
209,49	1307,83
209,70	1284,90
209,92	1288,89
210,14	1273,63
210,36	1286,84
210,58	1288,68
210,79	1290,63
211,01	1252,44
211,23	1303,22
211,45	1301,48
211,67	1294,52
211,88	1264,11
212,10	1297,59
212,32	1284,18
212,54	1272,91
212,76	1265,34
212,97	1274,25
213,19	1273,12
213,41	1293,29
213,63	1271,28
213,85	1274,55
214,06	1264,01
214,28	1292,68
214,50	1287,46
214,72	1299,54
214,94	1293,19
215,15	1279,78
215,37	1266,05
215,59	1271,69
215,81	1284,79
216,02	1283,67
216,24	1291,45
216,46	1271,99
216,68	1279,16
216,90	1292,27
217,11	1301,89
217,33	1266,16
217,55	1298,10
217,77	1289,91
217,98	1296,98
218,20	1287,05
218,42	1301,79
218,64	1291,86
218,85	1312,85
219,07	1290,53
219,29	1282,13
219,51	1298,41
219,73	1276,19
219,94	1288,27
220,16	1302,30
220,38	1271,79
220,60	1266,46
220,81	1277,52
221,03	1264,21
221,25	1280,49
221,47	1248,54
221,68	1280,59
221,90	1282,03
222,12	1274,55
222,34	1288,58
222,55	1298,62
222,77	1294,62
222,99	1291,86
223,21	1286,84
223,42	1305,38
223,64	1298,82
223,86	1284,59
224,08	1285,20
224,29	1319,10
224,51	1277,52
224,73	1295,65
224,94	1287,76
225,16	1271,17
225,38	1267,28
225,60	1300,36
225,81	1279,57
226,03	1272,91
226,25	1255,10
226,47	1284,69
226,68	1295,44
226,90	1283,77
227,12	1276,40
227,33	1296,67
227,55	1268,92
227,77	1270,25
227,99	1308,34
228,20	1272,61
228,42	1275,68
228,64	1292,88
228,86	1285,00
229,07	1270,25
229,29	1267,80
229,51	1262,57
229,72	1302,00
229,94	1295,14
230,16	1265,24
230,38	1263,70
230,59	1280,39
230,81	1309,57
231,03	1288,27
231,24	1286,23
231,46	1267,39
231,68	1289,30
231,89	1262,57
232,11	1268,92
232,33	1304,25
232,55	1283,36
232,76	1281,00
232,98	1271,38
233,20	1265,95
233,41	1272,30
233,63	1276,81
233,85	1283,97
234,06	1282,34
234,28	1307,63
234,50	1277,83
234,71	1294,93
234,93	1316,33
235,15	1287,05
235,37	1258,37
235,58	1286,53
235,80	1276,91
236,02	1270,97
236,23	1288,38
236,45	1271,89
236,67	1288,89
236,88	1290,73
237,10	1286,02
237,32	1300,56
237,53	1279,78
237,75	1281,41
237,97	1251,62
238,18	1284,79
238,40	1288,89
238,62	1272,40
238,83	1283,05
239,05	1272,51
239,27	1276,19
239,48	1277,42
239,70	1276,50
239,92	1303,53
240,13	1295,03
240,35	1272,61
240,57	1287,25
240,78	1289,81
241,00	1281,62
241,22	1280,19
241,43	1314,69
241,65	1268,41
241,87	1292,68
242,08	1336,20
242,30	1284,28
242,52	1279,78
242,73	1290,43
242,95	1270,76
243,16	1298,62
243,38	1321,35
243,60	1291,14
243,81	1286,74
244,03	1308,34
244,25	1287,05
244,46	1275,78
244,68	1273,12
244,90	1287,35
245,11	1277,32
245,33	1274,76
245,55	1294,11
245,76	1272,61
245,98	1279,16
246,19	1314,90
246,41	1320,94
246,63	1293,09
246,84	1314,80
247,06	1291,04
247,28	1297,39
247,49	1267,59
247,71	1280,90
247,92	1285,92
248,14	1302,71
248,36	1275,88
248,57	1313,77
248,79	1276,29
249,01	1284,79
249,22	1279,67
249,44	1271,89
249,65	1268,72
249,87	1281,00
250,09	1299,74
250,30	1300,87
250,52	1277,83
250,73	1296,88
250,95	1270,66
251,17	1280,90
251,38	1275,37
251,60	1276,50
251,81	1318,38
252,03	1316,33
252,25	1269,95
252,46	1279,88
252,68	1300,77
252,89	1292,06
253,11	1283,77
253,33	1279,06
253,54	1255,20
253,76	1276,50
253,97	1276,40
254,19	1277,63
254,41	1267,80
254,62	1306,09
254,84	1295,03
255,05	1288,27
255,27	1294,42
255,49	1285,82
255,70	1294,73
255,92	1284,49
256,13	1278,85
256,35	1315,41
256,56	1285,20
256,78	1301,18
257,00	1293,09
257,21	1285,92
257,43	1262,37
257,64	1294,01
257,86	1287,87
258,08	1278,34
258,29	1302,41
258,51	1294,62
258,72	1293,09
258,94	1303,63
259,15	1290,12
259,37	1289,30
259,59	1259,19
259,80	1288,48
260,02	1261,55
260,23	1281,00
260,45	1281,11
260,66	1293,80
260,88	1291,45
261,09	1285,92
261,31	1282,23
261,53	1314,08
261,74	1297,90
261,96	1264,52
262,17	1272,10
262,39	1298,72
262,60	1286,84
262,82	1277,93
263,03	1278,34
263,25	1277,83
263,46	1267,59
263,68	1294,62
263,90	1289,81
264,11	1275,88
264,33	1308,45
264,54	1306,81
264,76	1283,67
264,97	1310,29
265,19	1287,46
265,40	1311,31
265,62	1282,23
265,83	1298,31
266,05	1285,82
266,26	1290,32
266,48	1308,34
266,70	1299,74
266,91	1270,66
267,13	1302,20
267,34	1272,51
267,56	1295,65
267,77	1272,81
267,99	1290,63
268,20	1301,48
268,42	1287,76
268,63	1264,83
268,85	1330,46
269,06	1300,15
269,28	1298,72
269,49	1285,10
269,71	1302,00
269,92	1269,33
270,14	1271,07
270,35	1272,20
270,57	1295,44
270,78	1278,34
271,00	1285,20
271,21	1327,29
271,43	1271,99
271,64	1281,21
271,86	1310,29
272,07	1263,19
272,29	1308,45
272,50	1287,76
272,72	1293,60
272,93	1296,57
273,15	1312,24
273,36	1292,27
273,58	1298,00
273,79	1285,31
274,01	1282,95
274,22	1272,71
274,44	1288,99
274,65	1301,69
274,87	1299,54
275,08	1282,75
275,30	1306,71
275,51	1319,92
275,73	1329,85
275,94	1277,73
276,16	1272,61
276,37	1285,51
276,59	1302,30
276,80	1268,92
277,02	1287,05
277,23	1253,56
277,45	1287,76
277,66	1240,56
277,88	1290,12
278,09	1311,93
278,30	1299,33
278,52	1263,49
278,73	1336,09
278,95	1274,86
279,16	1327,29
279,38	1286,64
279,59	1296,67
279,81	1282,85
280,02	1296,36
280,24	1284,69
280,45	1307,01
280,67	1304,86
280,88	1296,98
281,09	1268,20
281,31	1270,46
281,52	1284,90
281,74	1335,89
281,95	1282,95
282,17	1289,71
282,38	1294,01
282,60	1288,48
282,81	1300,36
283,02	1282,85
283,24	1267,49
283,45	1309,98
283,67	1280,08
283,88	1304,86
284,10	1270,25
284,31	1315,21
284,53	1283,56
284,74	1285,41
284,95	1293,09
285,17	1290,32
285,38	1283,77
285,60	1286,84
285,81	1266,57
286,03	1288,27
286,24	1288,89
286,45	1317,36
286,67	1279,47
286,88	1288,79
287,10	1310,09
287,31	1261,65
287,53	1282,64
287,74	1279,47
287,95	1262,37
288,17	1295,44
288,38	1286,94
288,60	1282,75
288,81	1276,91
289,02	1276,81
289,24	1321,35
289,45	1291,96
289,67	1292,47
289,88	1289,71
290,10	1300,26
290,31	1292,58
290,52	1280,19
290,74	1283,67
290,95	1290,02
291,17	1315,00
291,38	1284,59
291,59	1282,34
291,81	1283,05
292,02	1295,03
292,24	1292,47
292,45	1291,65
292,66	1300,87
292,88	1304,45
293,09	1277,52
293,31	1292,68
293,52	1269,95
293,73	1267,80
293,95	1293,39
294,16	1302,51
294,37	1284,38
294,59	1297,39
294,80	1304,56
295,02	1284,49
295,23	1250,28
295,44	1281,52
295,66	1282,23
295,87	1293,19
296,09	1279,16
296,30	1303,22
296,51	1277,83
296,73	1275,47
296,94	1271,17
297,15	1280,19
297,37	1267,08
297,58	1291,96
297,79	1283,87
298,01	1282,95
298,22	1298,92
298,44	1288,58
298,65	1277,93
298,86	1308,14
299,08	1272,61
299,29	1300,36
299,50	1278,85
299,72	1280,49
299,93	1289,30
300,14	1296,98
300,36	1264,93
300,57	1256,84
300,79	1282,54
301,00	1305,27
301,21	1261,65
301,43	1292,47
301,64	1270,25
301,85	1277,73
302,07	1304,04
302,28	1270,05
302,49	1312,65
302,71	1274,04
302,92	1299,95
303,13	1305,58
303,35	1294,73
303,56	1283,26
303,77	1249,88
303,99	1306,60
304,20	1279,37
304,41	1277,32
304,63	1283,67
304,84	1290,02
305,05	1305,68
305,27	1295,44
305,48	1290,53
305,69	1275,07
305,91	1278,75
306,12	1279,57
306,33	1286,43
306,55	1298,31
306,76	1273,84
306,97	1283,56
307,19	1277,32
307,40	1307,63
307,61	1293,19
307,82	1285,82
308,04	1306,19
308,25	1306,40
308,46	1289,61
308,68	1285,61
308,89	1296,77
309,10	1279,57
309,32	1283,77
309,53	1275,07
309,74	1299,23
309,96	1276,60
310,17	1281,00
310,38	1281,41
310,59	1279,88
310,81	1290,73
311,02	1293,29
311,23	1304,25
311,45	1281,00
311,66	1299,23
311,87	1279,26
312,09	1309,98
312,30	1282,75
312,51	1312,65
312,72	1286,84
312,94	1305,07
313,15	1289,40
313,36	1301,07
313,58	1272,81
313,79	1304,15
314,00	1290,94
314,21	1276,70
314,43	1291,14
314,64	1295,75
314,85	1285,51
315,06	1287,46
315,28	1304,15
315,49	1309,27
315,70	1285,51
315,92	1324,93
316,13	1317,36
316,34	1327,29
316,55	1298,21
316,77	1290,53
316,98	1322,27
317,19	1289,40
317,40	1292,88
317,62	1289,40
317,83	1329,44
318,04	1299,74
318,25	1295,14
318,47	1291,65
318,68	1286,94
318,89	1310,29
319,11	1298,00
319,32	1300,87
319,53	1306,91
319,74	1310,39
319,96	1296,88
320,17	1288,58
320,38	1268,82
320,59	1320,94
320,81	1298,72
321,02	1290,94
321,23	1284,08
321,44	1305,38
321,65	1289,40
321,87	1288,38
322,08	1303,84
322,29	1276,81
322,50	1280,80
322,72	1277,42
322,93	1281,82
323,14	1287,35
323,35	1269,74
323,57	1279,57
323,78	1271,79
323,99	1299,64
324,20	1295,65
324,41	1270,76
324,63	1302,51
324,84	1292,88
325,05	1286,43
325,26	1295,24
325,48	1284,18
325,69	1294,62
325,90	1297,29
326,11	1294,42
326,32	1282,54
326,54	1312,44
326,75	1292,27
326,96	1290,53
327,17	1282,13
327,39	1304,56
327,60	1291,76
327,81	1300,87
328,02	1268,20
328,23	1285,51
328,45	1287,76
328,66	1272,51
328,87	1290,32
329,08	1313,06
329,29	1291,24
329,51	1288,68
329,72	1272,51
329,93	1299,64
330,14	1294,21
330,35	1281,82
330,56	1271,48
330,78	1288,68
330,99	1297,80
331,20	1288,07
331,41	1305,27
331,62	1265,75
331,84	1291,04
332,05	1293,91
332,26	1303,74
332,47	1298,21
332,68	1286,64
332,90	1287,87
333,11	1266,26
333,32	1318,89
333,53	1302,41
333,74	1280,70
333,95	1297,70
334,17	1304,76
334,38	1285,82
334,59	1294,62
334,80	1276,09
335,01	1319,51
335,22	1294,11
335,44	1278,14
335,65	1266,98
335,86	1314,80
336,07	1295,24
336,28	1299,85
336,49	1281,82
336,71	1277,01
336,92	1319,71
337,13	1296,98
337,34	1283,97
337,55	1346,74
337,76	1309,06
337,97	1308,34
338,19	1304,25
338,40	1318,69
338,61	1301,69
338,82	1298,82
339,03	1306,60
339,24	1302,10
339,45	1295,44
339,67	1303,22
339,88	1296,16
340,09	1317,36
340,30	1300,05
340,51	1317,05
340,72	1292,06
340,93	1278,75
341,15	1303,43
341,36	1333,64
341,57	1279,57
341,78	1276,50
341,99	1302,61
342,20	1314,80
342,41	1291,76
342,62	1335,99
342,84	1275,07
343,05	1325,85
343,26	1286,53
343,47	1322,68
343,68	1255,61
343,89	1289,50
344,10	1315,82
344,31	1303,94
344,53	1283,26
344,74	1310,90
344,95	1293,70
345,16	1301,07
345,37	1306,40
345,58	1306,19
345,79	1283,56
346,00	1295,55
346,21	1286,33
346,42	1308,14
346,64	1291,76
346,85	1321,86
347,06	1302,92
347,27	1295,03
347,48	1321,04
347,69	1319,20
347,90	1306,81
348,11	1322,07
348,32	1286,53
348,53	1310,50
348,75	1288,07
348,96	1312,24
349,17	1282,13
349,38	1291,76
349,59	1311,01
349,80	1301,28
350,01	1333,53
350,22	1333,23
350,43	1302,20
350,64	1322,58
350,85	1321,86
351,06	1303,43
351,28	1322,17
351,49	1297,80
351,70	1317,36
351,91	1318,99
352,12	1309,47
352,33	1307,94
352,54	1301,07
352,75	1322,58
352,96	1302,51
353,17	1317,36
353,38	1313,46
353,59	1332,10
353,80	1346,33
354,01	1321,76
354,22	1311,21
354,44	1327,60
354,65	1328,62
354,86	1309,88
355,07	1305,17
355,28	1294,21
355,49	1311,62
355,70	1302,10
355,91	1322,78
356,12	1279,16
356,33	1288,99
356,54	1328,82
356,75	1320,94
356,96	1334,56
357,17	1321,86
357,38	1300,15
357,59	1311,11
357,80	1345,82
358,01	1327,39
358,22	1333,02
358,43	1324,32
358,64	1330,05
358,85	1315,10
359,07	1316,64
359,28	1311,42
359,49	1321,14
359,70	1311,21
359,91	1328,31
360,12	1300,87
360,33	1353,50
360,54	1310,50
360,75	1309,37
360,96	1307,83
361,17	1286,12
361,38	1316,84
361,59	1358,01
361,80	1294,73
362,01	1347,56
362,22	1331,49
362,43	1318,38
362,64	1322,27
362,85	1320,94
363,06	1349,61
363,27	1347,87
363,48	1329,85
363,69	1361,80
363,90	1311,01
364,11	1328,72
364,32	1298,92
364,53	1349,92
364,74	1328,01
364,95	1329,95
365,16	1339,37
365,37	1358,42
365,58	1324,22
365,79	1326,16
366,00	1334,56
366,21	1307,42
366,42	1340,19
366,63	1347,15
366,84	1329,34
367,05	1362,62
367,26	1395,90
367,47	1546,83
367,68	1674,11
367,89	1946,59
368,10	2191,74
368,31	2424,08
368,52	2677,72
368,73	2902,28
368,94	2870,94
369,15	2769,47
369,36	2699,12
369,57	2626,52
369,78	2539,07
369,99	2493,61
370,20	2302,02
370,40	2107,97
370,61	1952,74
370,82	1833,14
371,03	1738,62
371,24	1682,61
371,45	1594,65
371,66	1510,79
371,87	1469,83
372,08	1445,25
372,29	1396,71
372,50	1393,64
372,71	1365,07
372,92	1367,84
373,13	1323,81
373,34	1340,50
373,55	1329,85
373,76	1363,54
373,97	1311,31
374,18	1323,40
374,39	1320,74
374,60	1359,65
374,81	1322,27
375,01	1329,44
375,22	1333,64
375,43	1308,65
375,64	1312,24
375,85	1324,63
376,06	1322,07
376,27	1325,55
376,48	1351,25
376,69	1344,08
376,90	1323,19
377,11	1349,82
377,32	1329,85
377,53	1335,28
377,74	1328,01
377,94	1318,58
378,15	1328,72
378,36	1341,52
378,57	1308,55
378,78	1361,28
378,99	1300,66
379,20	1380,74
379,41	1318,99
379,62	1334,25
379,83	1297,08
380,04	1340,60
380,25	1324,22
380,45	1341,11
380,66	1345,52
380,87	1331,90
381,08	1331,18
381,29	1314,69
381,50	1339,47
381,71	1339,58
381,92	1333,74
382,13	1321,66
382,34	1324,32
382,55	1340,60
382,75	1346,74
382,96	1371,42
383,17	1323,19
383,38	1360,57
383,59	1361,90
383,80	1352,38
384,01	1362,31
384,22	1376,54
384,43	1381,05
384,63	1354,94
384,84	1345,62
385,05	1357,60
385,26	1344,90
385,47	1357,19
385,68	1347,15
385,89	1348,28
386,10	1333,43
386,30	1356,06
386,51	1325,65
386,72	1345,82
386,93	1314,18
387,14	1354,22
387,35	1333,13
387,56	1357,29
387,77	1323,19
387,97	1328,41
388,18	1314,18
388,39	1336,81
388,60	1321,25
388,81	1348,38
389,02	1332,31
389,23	1311,11
389,43	1309,27
389,64	1308,24
389,85	1308,65
390,06	1345,72
390,27	1304,04
390,48	1341,21
390,69	1311,01
390,89	1327,08
391,10	1311,83
391,31	1313,46
391,52	1311,21
391,73	1325,24
391,94	1296,98
392,14	1300,66
392,35	1289,61
392,56	1305,48
392,77	1312,03
392,98	1304,04
393,19	1350,02
393,39	1323,81
393,60	1325,34
393,81	1335,79
394,02	1339,99
394,23	1318,28
394,44	1296,26
394,64	1316,43
394,85	1320,22
395,06	1325,04
395,27	1315,00
395,48	1316,33
395,69	1325,65
395,89	1325,96
396,10	1304,56
396,31	1341,93
396,52	1285,31
396,73	1303,33
396,93	1303,63
397,14	1327,29
397,35	1311,62
397,56	1316,54
397,77	1292,27
397,97	1303,63
398,18	1311,62
398,39	1317,25
398,60	1301,07
398,81	1299,44
399,01	1284,49
399,22	1309,78
399,43	1335,07
399,64	1336,50
399,85	1318,58
400,05	1308,24
400,26	1282,13
400,47	1311,21
400,68	1275,99
400,89	1350,23
401,09	1302,10
401,30	1318,99
401,51	1319,40
401,72	1313,26
401,93	1356,47
402,13	1307,73
402,34	1324,11
402,55	1328,72
402,76	1323,30
402,96	1323,09
403,17	1328,82
403,38	1335,28
403,59	1320,84
403,80	1336,81
404,00	1343,47
404,21	1317,05
404,42	1296,26
404,63	1301,07
404,83	1311,42
405,04	1325,04
405,25	1328,62
405,46	1330,05
405,66	1311,52
405,87	1332,00
406,08	1315,00
406,29	1389,03
406,49	1405,42
406,70	1657,93
406,91	2017,35
407,12	2777,25
407,32	3424,51
407,53	4275,65
407,74	4716,47
407,95	4873,65
408,15	4787,33
408,36	4324,59
408,57	3885,92
408,78	3597,87
408,98	3405,46
409,19	3205,48
409,40	2952,15
409,61	2565,39
409,81	2284,71
410,02	2106,03
410,23	2036,19
410,44	2029,95
410,64	1937,89
410,85	1931,23
411,06	1884,75
411,26	1861,71
411,47	1756,44
411,68	1688,35
411,89	1591,37
412,09	1573,76
412,30	1550,31
412,51	1491,43
412,72	1453,85
412,92	1456,11
413,13	1399,07
413,34	1371,93
413,54	1369,99
413,75	1386,68
413,96	1374,39
414,17	1347,36
414,37	1365,07
414,58	1396,61
414,79	1356,98
414,99	1374,08
415,20	1344,70
415,41	1343,88
415,61	1348,38
415,82	1366,81
416,03	1355,76
416,24	1345,41
416,44	1353,91
416,65	1369,07
416,86	1381,46
417,06	1330,87
417,27	1361,39
417,48	1369,48
417,68	1373,98
417,89	1358,32
418,10	1370,40
418,30	1381,05
418,51	1388,73
418,72	1370,09
418,92	1370,09
419,13	1391,49
419,34	1373,47
419,55	1382,28
419,75	1571,61
419,96	1363,74
420,17	1424,57
420,37	1383,10
420,58	1381,46
420,79	1368,15
420,99	1386,37
421,20	1402,04
421,41	1374,60
421,61	1375,42
421,82	1350,33
422,03	1378,49
422,23	1366,81
422,44	1368,15
422,65	1391,08
422,85	1372,45
423,06	1384,02
423,26	1384,43
423,47	1376,85
423,68	1387,29
423,88	1376,44
424,09	1366,61
424,30	1380,54
424,50	1360,57
424,71	1356,37
424,92	1381,46
425,12	1400,81
425,33	1381,76
425,54	1352,99
425,74	1357,39
425,95	1389,65
426,15	1362,10
426,36	1340,91
426,57	1380,54
426,77	1365,18
426,98	1356,47
427,19	1351,56
427,39	1347,87
427,60	1391,08
427,81	1370,71
428,01	1369,99
428,22	1398,56
428,42	1364,56
428,63	1373,27
428,84	1366,61
429,04	1370,19
429,25	1367,74
429,45	1360,36
429,66	1409,62
429,87	1399,58
430,07	1432,66
430,28	1388,63
430,49	1400,81
430,69	1401,43
430,90	1395,59
431,10	1392,00
431,31	1409,82
431,52	1408,29
431,72	1394,05
431,93	1389,75
432,13	1419,96
432,34	1422,31
432,55	1378,28
432,75	1390,16
432,96	1422,11
433,16	1408,18
433,37	1409,92
433,58	1406,14
433,78	1429,17
433,99	1429,99
434,19	1418,73
434,40	1438,60
434,60	1428,77
434,81	1428,15
435,02	1407,06
435,22	1437,78
435,43	1441,87
435,63	1431,73
435,84	1448,22
436,05	1482,73
436,25	1472,80
436,46	1533,11
436,66	1539,87
436,87	1577,04
437,07	1626,19
437,28	1785,32
437,48	2234,13
437,69	3433,21
437,90	5836,61
438,10	8834,83
438,31	12095,41
438,51	15649,25
438,72	17009,20
438,92	17043,09
439,13	15770,08
439,34	13264,49
439,54	11452,96
439,75	10215,06
439,95	9512,10
440,16	8900,16
440,36	7851,50
440,57	6283,58
440,77	5288,98
440,98	4314,05
441,18	3678,56
441,39	3222,68
441,60	2895,42
441,80	2524,22
442,01	2257,99
442,21	2129,38
442,42	1934,51
442,62	1801,91
442,83	1647,39
443,03	1572,43
443,24	1514,58
443,44	1503,11
443,65	1474,54
443,85	1462,97
444,06	1458,15
444,26	1503,00
444,47	1409,10
444,67	1445,15
444,88	1436,55
445,09	1441,46
445,29	1427,84
445,50	1475,15
445,70	1395,18
445,91	1433,27
446,11	1413,20
446,32	1427,43
446,52	1425,69
446,73	1416,99
446,93	1414,12
447,14	1410,54
447,34	1400,20
447,55	1399,38
447,75	1407,16
447,96	1413,61
448,16	1400,50
448,37	1414,53
448,57	1397,84
448,78	1419,14
448,98	1399,48
449,19	1416,27
449,39	1408,70
449,60	1408,18
449,80	1401,63
450,01	1392,93
450,21	1381,35
450,42	1417,91
450,62	1384,32
450,83	1371,12
451,03	1401,53
451,23	1389,75
451,44	1410,23
451,64	1398,35
451,85	1406,34
452,05	1403,06
452,26	1419,75
452,46	1394,77
452,67	1395,18
452,87	1380,84
453,08	1394,15
453,28	1381,15
453,49	1377,67
453,69	1410,44
453,90	1409,41
454,10	1417,40
454,31	1403,17
454,51	1401,22
454,71	1383,61
454,92	1390,78
455,12	1364,66
455,33	1387,09
455,53	1407,47
455,74	1389,14
455,94	1388,63
456,15	1409,92
456,35	1402,96
456,55	1380,84
456,76	1415,25
456,96	1403,37
457,17	1371,52
457,37	1421,09
457,58	1400,61
457,78	1389,55
457,99	1394,67
458,19	1400,09
458,39	1396,10
458,60	1397,43
458,80	1398,56
459,01	1396,00
459,21	1383,71
459,42	1397,23
459,62	1403,88
459,82	1406,85
460,03	1397,64
460,23	1415,04
460,44	1397,84
460,64	1387,60
460,85	1417,09
461,05	1375,42
461,25	1370,19
461,46	1400,61
461,66	1371,63
461,87	1405,01
462,07	1411,15
462,27	1417,09
462,48	1406,75
462,68	1391,70
462,89	1376,23
463,09	1513,24
463,29	1418,42
463,50	1417,50
463,70	1385,25
463,91	1384,63
464,11	1395,90
464,31	1398,56
464,52	1413,51
464,72	1411,46
464,93	1371,73
465,13	1412,18
465,33	1401,73
465,54	1385,25
465,74	1419,96
465,95	1402,55
466,15	1397,43
466,35	1384,63
466,56	1396,10
466,76	1414,53
466,96	1394,46
467,17	1437,88
467,37	1444,53
467,58	1421,09
467,78	1410,74
467,98	1414,12
468,19	1395,90
468,39	1414,94
468,59	1415,25
468,80	1457,03
469,00	1397,23
469,21	1425,80
469,41	1443,61
469,61	1450,17
469,82	1437,16
470,02	1480,48
470,22	1451,60
470,43	1456,41
470,63	1431,53
470,83	1422,01
471,04	1391,80
471,24	1429,17
471,45	1432,14
471,65	1453,96
471,85	1440,95
472,06	1431,22
472,26	1431,53
472,46	1414,33
472,67	1438,19
472,87	1410,44
473,07	1412,48
473,28	1416,38
473,48	1426,41
473,68	1449,04
473,89	1410,13
474,09	1443,41
474,29	1403,68
474,50	1443,41
474,70	1412,59
474,90	1475,66
475,11	1428,77
475,31	1465,83
475,51	1435,52
475,72	1445,35
475,92	1437,57
476,12	1437,06
476,33	1480,89
476,53	1448,32
476,73	1431,73
476,93	1429,89
477,14	1416,48
477,34	1452,42
477,54	1463,48
477,75	1443,72
477,95	1431,12
478,15	1457,33
478,36	1464,09
478,56	1445,15
478,76	1437,26
478,97	1461,12
479,17	1437,47
479,37	1465,32
479,57	1443,82
479,78	1459,48
479,98	1463,79
480,18	1490,10
480,39	1468,50
480,59	1484,47
480,79	1501,88
480,99	1490,72
481,20	1501,06
481,40	1560,86
481,60	1544,58
481,81	1571,92
482,01	1565,67
482,21	1582,16
482,41	1607,55
482,62	1633,26
482,82	1638,99
483,02	1695,72
483,23	1691,62
483,43	1782,45
483,63	1777,23
483,83	1840,71
484,04	1930,21
484,24	1976,70
484,44	2017,76
484,64	2099,58
484,85	2182,83
485,05	2283,89
485,25	2434,73
485,45	2514,60
485,66	2701,78
485,86	2819,13
486,06	2978,05
486,26	3176,30
486,47	3356,31
486,67	3523,84
486,87	3732,94
487,07	3918,28
487,28	4104,64
487,48	4343,74
487,68	4638,44
487,88	4824,60
488,09	5144,70
488,29	5391,69
488,49	5733,49
488,69	5935,42
488,90	6163,46
489,10	6273,34
489,30	6440,55
489,50	6576,95
489,71	6671,36
489,91	6761,37
490,11	6785,23
490,31	6776,52
490,52	6704,44
490,72	6630,91
490,92	6640,13
491,12	6500,36
491,32	6396,93
491,53	6274,05
491,73	6101,41
491,93	5970,03
492,13	5858,62
492,33	5695,20
492,54	5574,47
492,74	5556,04
492,94	5417,49
493,14	5385,34
493,35	5268,60
493,55	5254,88
493,75	5209,11
493,95	5125,14
494,15	5049,78
494,36	5034,01
494,56	4927,62
494,76	4843,55
494,96	4762,04
495,16	4699,68
495,37	4618,58
495,57	4510,45
495,77	4447,78
495,97	4372,82
496,17	4292,44
496,37	4216,97
496,58	4163,52
496,78	4024,77
496,98	3985,45
497,18	3975,21
497,38	3870,97
497,59	3844,24
497,79	3732,53
497,99	3710,10
498,19	3639,45
498,39	3569,30
498,59	3494,04
498,80	3457,28
499,00	3416,32
499,20	3332,35
499,40	3217,36
499,60	3212,65
499,80	3187,46
500,01	3115,68
500,21	3061,61
500,41	2999,76
500,61	2974,88
500,81	2905,56
501,01	2822,41
501,22	2763,43
501,42	2700,66
501,62	2649,05
501,82	2620,17
502,02	2563,65
502,22	2473,74
502,42	2456,13
502,63	2423,98
502,83	2392,23
503,03	2319,84
503,23	2260,04
503,43	2219,59
503,63	2217,44
503,83	2183,65
504,04	2097,53
504,24	2083,60
504,44	2049,50
504,64	2011,31
504,84	2015,51
505,04	1951,30
505,24	1926,32
505,44	1907,89
505,65	1886,08
505,85	1878,19
506,05	1826,58
506,25	1794,12
506,45	1789,11
506,65	1750,19
506,85	1700,12
507,05	1741,90
507,26	1717,43
507,46	1708,72
507,66	1668,58
507,86	1599,36
508,06	1628,95
508,26	1599,26
508,46	1618,00
508,66	1601,10
508,86	1600,08
509,06	1575,09
509,27	1579,39
509,47	1563,32
509,67	1539,56
509,87	1525,22
510,07	1554,10
510,27	1512,42
510,47	1545,91
510,67	1533,62
510,87	1536,59
511,07	1506,69
511,28	1521,64
511,48	1521,44
511,68	1516,62
511,88	1495,73
512,08	1493,48
512,28	1490,92
512,48	1513,35
512,68	1469,21
512,88	1468,70
513,08	1498,50
513,28	1499,83
513,48	1481,09
513,68	1482,52
513,89	1466,55
514,09	1483,34
514,29	1453,34
514,49	1461,02
514,69	1465,73
514,89	1450,27
515,09	1451,50
515,29	1439,52
515,49	1420,06
515,69	1460,20
515,89	1438,08
516,09	1439,52
516,29	1403,88
516,49	1411,05
516,69	1429,28
516,89	1406,65
517,09	1399,99
517,29	1432,45
517,50	1378,18
517,70	1398,87
517,90	1404,29
518,10	1415,25
518,30	1401,83
518,50	1437,47
518,70	1416,89
518,90	1408,80
519,10	1417,81
519,30	1396,51
519,50	1401,94
519,70	1418,32
519,90	1405,93
520,10	1383,10
520,30	1394,97
520,50	1387,40
520,70	1402,14
520,90	1427,64
521,10	1389,34
521,30	1396,00
521,50	1397,84
521,70	1401,32
521,90	1382,89
522,10	1425,18
522,30	1409,62
522,50	1401,63
522,70	1390,37
522,90	1397,64
523,10	1387,29
523,30	1382,99
523,50	1399,79
523,70	1381,46
523,90	1366,61
524,10	1380,54
524,30	1377,77
524,50	1375,72
524,70	1401,83
524,90	1393,54
525,10	1383,40
525,30	1380,95
525,50	1383,71
525,70	1373,06
525,90	1381,25
526,10	1402,24
526,30	1368,66
526,50	1396,41
526,70	1383,51
526,90	1399,99
527,10	1381,97
527,30	1400,81
527,50	1413,10
527,70	1395,79
527,90	1404,09
528,10	1417,09
528,30	1414,43
528,50	1437,26
528,70	1431,12
528,90	1422,72
529,10	1436,85
529,30	1413,51
529,50	1458,15
529,70	1448,84
529,90	1463,38
530,10	1487,03
530,29	1486,21
530,49	1479,25
530,69	1454,77
530,89	1459,28
531,09	1469,32
531,29	1489,28
531,49	1446,79
531,69	1498,09
531,89	1484,27
532,09	1496,25
532,29	1501,37
532,49	1487,13
532,69	1495,53
532,89	1494,61
533,09	1522,97
533,29	1507,61
533,49	1520,00
533,68	1550,21
533,88	1570,79
534,08	1576,63
534,28	1602,74
534,48	1698,38
534,68	1749,78
534,88	1854,95
535,08	1957,55
535,28	2088,11
535,48	2165,11
535,68	2229,73
535,88	2276,83
536,08	2231,57
536,27	2215,39
536,47	2214,98
536,67	2179,24
536,87	2178,32
537,07	2191,53
537,27	2217,34
537,47	2212,93
537,67	2200,95
537,87	2267,51
538,07	2363,05
538,27	2438,21
538,46	2588,43
538,66	2668,30
538,86	2835,52
539,06	3092,64
539,26	3348,53
539,46	3613,13
539,66	3874,96
539,86	4163,32
540,06	4462,11
540,25	4705,52
540,45	4930,69
540,65	5174,19
540,85	5496,54
541,05	5865,18
541,25	6224,60
541,45	6787,07
541,65	7411,91
541,85	8230,07
542,04	9142,95
542,24	10200,11
542,44	11574,20
542,64	13118,98
542,84	15097,42
543,04	17364,52
543,24	19957,97
543,43	22533,70
543,63	24940,98
543,83	26529,80
544,03	27481,59
544,23	27859,54
544,43	27809,37
544,63	27305,77
544,82	27106,81
545,02	26332,88
545,22	26118,97
545,42	25318,01
545,62	25252,38
545,82	24724,82
546,02	24379,63
546,21	24058,92
546,41	23944,24
546,61	23580,93
546,81	23878,91
547,01	23829,75
547,21	25655,83
547,40	28523,70
547,60	32619,64
547,80	36333,73
548,00	40273,82
548,20	42253,08
548,40	41618,31
548,59	39424,52
548,79	35797,16
548,99	33139,82
549,19	31298,49
549,39	29926,15
549,59	28440,86
549,78	26263,05
549,98	24408,31
550,18	22425,57
550,38	20950,72
550,58	19674,73
550,77	18557,57
550,97	17448,18
551,17	16322,21
551,37	15643,10
551,57	14676,36
551,76	13912,06
551,96	13190,56
552,16	12427,59
552,36	11804,59
552,56	11115,15
552,75	10507,10
552,95	9887,08
553,15	9438,68
553,35	8961,19
553,55	8349,26
553,74	8050,97
553,94	7557,11
554,14	7202,19
554,34	6845,95
554,54	6530,77
554,73	6229,31
554,93	5936,34
555,13	5688,75
555,33	5400,70
555,53	5209,32
555,72	4940,52
555,92	4762,14
556,12	4528,16
556,32	4332,38
556,51	4141,61
556,71	3926,67
556,91	3749,52
557,11	3593,57
557,30	3454,31
557,50	3312,28
557,70	3132,16
557,90	3057,00
558,10	2936,48
558,29	2827,84
558,49	2761,28
558,69	2684,58
558,89	2600,72
559,08	2560,68
559,28	2448,04
559,48	2403,29
559,68	2343,70
559,87	2355,16
560,07	2259,11
560,27	2236,79
560,47	2167,67
560,66	2161,63
560,86	2099,48
561,06	2093,13
561,25	2016,53
561,45	1999,74
561,65	1972,09
561,85	1967,59
562,04	1970,35
562,24	1918,23
562,44	1909,32
562,64	1930,52
562,83	1914,44
563,03	1889,15
563,23	1857,81
563,42	1881,78
563,62	1813,17
563,82	1839,69
564,02	1821,57
564,21	1833,96
564,41	1816,45
564,61	1826,99
564,80	1786,14
565,00	1813,99
565,20	1754,80
565,40	1809,59
565,59	1751,53
565,79	1759,72
565,99	1768,83
566,18	1725,93
566,38	1734,12
566,58	1730,23
566,78	1691,83
566,97	1714,15
567,17	1701,86
567,37	1662,34
567,56	1675,44
567,76	1666,94
567,96	1656,09
568,15	1646,67
568,35	1646,16
568,55	1649,43
568,74	1635,20
568,94	1650,77
569,14	1619,12
569,33	1623,42
569,53	1612,88
569,73	1634,48
569,92	1656,70
570,12	1646,98
570,32	1635,71
570,52	1632,95
570,71	1621,58
570,91	1645,85
571,11	1624,55
571,30	1615,03
571,50	1595,57
571,70	1632,54
571,89	1603,35
572,09	1593,83
572,28	1557,48
572,48	1529,01
572,68	1529,42
572,87	1537,72
573,07	1530,04
573,27	1520,10
573,46	1536,39
573,66	1498,09
573,86	1512,02
574,05	1496,66
574,25	1492,87
574,45	1488,57
574,64	1502,08
574,84	1542,43
575,04	1487,54
575,23	1503,62
575,43	1491,43
575,62	1517,54
575,82	1532,60
576,02	1508,74
576,21	1524,82
576,41	1528,91
576,61	1565,26
576,80	1534,65
577,00	1539,15
577,19	1596,60
577,39	1636,63
577,59	1668,68
577,78	1780,40
577,98	2150,78
578,18	2770,70
578,37	3515,34
578,57	4322,34
578,76	4995,41
578,96	5326,36
579,16	5280,89
579,35	4858,81
579,55	4339,95
579,74	4070,95
579,94	4001,83
580,14	4252,71
580,33	4628,20
580,53	5047,53
580,72	5508,63
580,92	5917,50
581,12	6024,10
581,31	5811,32
581,51	5589,42
581,70	5422,71
581,90	5597,71
582,10	5754,08
582,29	5875,21
582,49	5739,74
582,68	5459,37
582,88	5185,35
583,07	4990,59
583,27	4932,02
583,47	4948,81
583,66	5036,26
583,86	5093,61
584,05	5220,27
584,25	5380,01
584,44	5513,54
584,64	5650,24
584,84	5733,29
585,03	5862,72
585,23	5903,78
585,42	5982,01
585,62	5993,69
585,81	6028,50
586,01	6015,91
586,20	6006,90
586,40	5959,90
586,60	5859,85
586,79	5792,37
586,99	5730,32
587,18	5663,45
587,38	5581,94
587,57	5421,08
587,77	5461,83
587,96	5494,70
588,16	5664,27
588,35	6112,78
588,55	6739,46
588,75	7501,81
588,94	8256,18
589,14	8777,08
589,33	9027,65
589,53	8980,04
589,72	8455,24
589,92	8036,02
590,11	7446,72
590,31	6990,64
590,50	6597,74
590,70	6138,17
590,89	5760,01
591,09	5334,75
591,28	5062,89
591,48	4801,05
591,67	4600,15
591,87	4444,71
592,06	4393,81
592,26	4380,09
592,45	4324,39
592,65	4396,78
592,84	4434,06
593,04	4485,15
593,23	4579,87
593,43	4699,78
593,62	4926,39
593,82	5135,59
594,01	5473,40
594,21	5993,18
594,40	6508,44
594,60	6933,40
594,79	7443,34
594,99	7672,41
595,18	7782,79
595,38	7637,80
595,57	7361,73
595,77	7007,23
595,96	6593,95
596,16	6184,46
596,35	5757,76
596,55	5420,77
596,74	5051,93
596,94	4767,98
597,13	4522,43
597,33	4296,64
597,52	4127,27
597,72	3979,00
597,91	3926,57
598,11	3812,91
598,30	3742,05
598,50	3710,71
598,69	3604,12
598,88	3596,23
599,08	3540,63
599,27	3550,46
599,47	3570,84
599,66	3668,83
599,86	3784,75
600,05	3888,17
600,25	4138,33
600,44	4324,08
600,64	4642,34
600,83	4857,37
601,02	5184,94
601,22	5338,95
601,41	5449,13
601,61	5469,61
601,80	5445,75
602,00	5356,36
602,19	5136,10
602,38	4927,82
602,58	4691,18
602,77	4504,10
602,97	4291,83
603,16	4095,53
603,36	3838,61
603,55	3739,69
603,74	3508,27
603,94	3367,88
604,13	3257,40
604,33	3118,95
604,52	2972,22
604,72	2924,50
604,91	2867,16
605,10	2842,89
605,30	2795,27
605,49	2840,02
605,69	2858,55
605,88	2817,80
606,07	2845,24
606,27	2848,11
606,46	2863,06
606,66	2863,16
606,85	2844,83
607,04	2897,06
607,24	2935,76
607,43	2999,46
607,63	2996,08
607,82	3042,56
608,01	3131,96
608,21	3184,59
608,40	3306,04
608,60	3395,74
608,79	3516,77
608,98	3639,04
609,18	3825,30
609,37	3987,40
609,57	4121,43
609,76	4377,43
609,95	4645,61
610,15	4958,44
610,34	5335,37
610,53	5738,92
610,73	6264,63
610,92	6960,84
611,11	7784,23
611,31	8973,58
611,50	10444,54
611,70	12629,31
611,89	15812,06
612,08	20439,24
612,28	26677,25
612,47	34299,07
612,66	42176,99
612,86	49043,12
613,05	53665,79
613,24	55395,10
613,44	54450,06
613,63	51665,44
613,82	48620,31
614,02	44957,73
614,21	41434,09
614,41	38561,41
614,60	35714,73
614,79	32552,77
614,99	30017,28
615,18	28093,11
615,37	26053,44
615,57	25033,55
615,76	23504,43
615,95	22365,25
616,15	21472,95
616,34	20623,45
616,53	19561,48
616,73	18593,92
616,92	17222,39
617,11	16002,93
617,30	14730,83
617,50	13533,28
617,69	12537,97
617,88	11550,13
618,08	10513,15
618,27	9819,09
618,46	9080,49
618,66	8411,93
618,85	7811,98
619,04	7309,30
619,24	6915,89
619,43	6517,56
619,62	6155,58
619,82	5853,71
620,01	5571,50
620,20	5362,40
620,39	5194,57
620,59	5007,80
620,78	4907,85
620,97	4829,21
621,17	4717,09
621,36	4682,07
621,55	4618,78
621,74	4653,19
621,94	4669,16
622,13	4706,54
622,32	4708,59
622,52	4735,42
622,71	4773,20
622,90	4774,63
623,09	4805,46
623,29	4798,49
623,48	4821,94
623,67	4829,42
623,86	4877,85
624,06	4931,20
624,25	5003,90
624,44	5101,49
624,64	5171,63
624,83	5224,16
625,02	5248,84
625,21	5374,07
625,41	5460,70
625,60	5491,22
625,79	5470,23
625,98	5532,89
626,18	5634,78
626,37	5656,08
626,56	5628,33
626,75	5707,07
626,95	5693,87
627,14	5754,89
627,33	5799,34
627,52	5816,23
627,72	5814,49
627,91	5843,47
628,10	5846,34
628,29	5861,70
628,49	5800,56
628,68	5774,15
628,87	5716,50
629,06	5741,69
629,25	5637,44
629,45	5542,32
629,64	5578,56
629,83	5502,07
630,02	5415,96
630,22	5396,40
630,41	5365,78
630,60	5346,12
630,79	5339,87
630,98	5424,66
631,18	5529,93
631,37	5705,03
631,56	6094,55
631,75	6568,04
631,94	7119,46
632,14	7720,02
632,33	8348,24
632,52	8884,91
632,71	9237,47
632,90	9091,85
633,10	8755,99
633,29	8212,56
633,48	7610,76
633,67	6943,54
633,86	6313,38
634,06	5725,61
634,25	5187,30
634,44	4678,18
634,63	4278,82
634,82	3936,50
635,02	3602,17
635,21	3360,72
635,40	3171,69
635,59	2991,57
635,78	2869,61
635,97	2731,27
636,17	2618,84
636,36	2573,48
636,55	2484,08
636,74	2414,86
636,93	2328,23
637,12	2308,78
637,32	2249,80
637,51	2164,70
637,70	2168,59
637,89	2116,17
638,08	2100,19
638,27	2087,80
638,47	2049,50
638,66	2029,74
638,85	1989,29
639,04	1991,04
639,23	1985,92
639,42	1979,98
639,62	1965,85
639,81	1960,32
640,00	1925,19
640,19	1890,38
640,38	1893,76
640,57	1911,88
640,76	1894,06
640,95	1847,06
641,15	1820,75
641,34	1840,10
641,53	1830,78
641,72	1845,22
641,91	1841,53
642,10	1797,81
642,29	1830,58
642,49	1800,16
642,68	1817,47
642,87	1804,77
643,06	1831,60
643,25	1834,26
643,44	1812,45
643,63	1812,15
643,82	1814,91
644,01	1810,30
644,21	1830,99
644,40	1842,46
644,59	1830,88
644,78	1825,76
644,97	1891,91
645,16	1860,37
645,35	1865,60
645,54	1831,40
645,73	1852,18
645,92	1852,80
646,12	1850,03
646,31	1846,76
646,50	1849,42
646,69	1868,26
646,88	1846,24
647,07	1842,76
647,26	1813,27
647,45	1807,43
647,64	1836,11
647,83	1841,64
648,02	1830,17
648,22	1849,52
648,41	1798,53
648,60	1809,79
648,79	1819,93
648,98	1844,61
649,17	1801,70
649,36	1795,35
649,55	1830,68
649,74	1841,64
649,93	1833,14
650,12	1858,12
650,31	1919,56
650,50	1909,01
650,69	1989,29
650,88	2096,71
651,08	2193,48
651,27	2404,93
651,46	2614,03
651,65	2833,26
651,84	3062,53
652,03	3193,50
652,22	3238,45
652,41	3223,09
652,60	3178,14
652,79	3061,82
652,98	2901,77
653,17	2768,85
653,36	2645,77
653,55	2556,68
653,74	2494,22
653,93	2410,66
654,12	2404,21
654,31	2427,35
654,50	2431,45
654,69	2445,68
654,88	2402,27
655,07	2349,22
655,26	2283,08
655,45	2213,14
655,64	2178,83
655,83	2139,92
656,02	2102,34
656,21	2038,55
656,40	1999,43
656,59	1973,12
656,78	1941,17
656,97	1909,22
657,17	1915,36
657,36	1883,11
657,55	1933,79
657,74	1852,49
657,93	1855,66
658,12	1868,77
658,31	1859,76
658,50	1864,78
658,69	1866,01
658,87	1918,74
659,06	1942,09
659,25	1951,61
659,44	1939,22
659,63	1971,48
659,82	1923,35
660,01	1902,46
660,20	1870,41
660,39	1834,06
660,58	1810,20
660,77	1760,13
660,96	1759,61
661,15	1742,00
661,34	1712,10
661,53	1688,65
661,72	1697,66
661,91	1666,43
662,10	1663,67
662,29	1644,83
662,48	1686,09
662,67	1724,18
662,86	1778,05
663,05	1873,58
663,24	2026,47
663,43	2127,23
663,62	2307,86
663,81	2388,65
664,00	2478,45
664,19	2448,55
664,38	2415,27
664,57	2339,29
664,76	2305,50
664,94	2223,27
665,13	2132,55
665,32	2070,60
665,51	2026,36
665,70	1956,42
665,89	1919,87
666,08	1861,91
666,27	1821,67
666,46	1793,51
666,65	1764,63
666,84	1725,82
667,03	1726,85
667,22	1687,32
667,41	1725,31
667,60	1668,38
667,78	1684,76
667,97	1682,82
668,16	1704,01
668,35	1672,37
668,54	1662,95
668,73	1675,55
668,92	1673,80
669,11	1657,52
669,30	1672,58
669,49	1650,77
669,68	1692,65
669,86	1647,90
670,05	1638,78
670,24	1616,26
670,43	1643,39
670,62	1647,39
670,81	1626,80
671,00	1605,10
671,19	1627,52
671,38	1597,62
671,57	1618,20
671,75	1586,05
671,94	1597,72
672,13	1606,63
672,32	1589,84
672,51	1594,45
672,70	1615,03
672,89	1594,45
673,08	1579,09
673,26	1580,42
673,45	1593,93
673,64	1564,44
673,83	1561,78
674,02	1546,42
674,21	1594,86
674,40	1556,56
674,59	1547,75
674,77	1563,52
674,96	1559,12
675,15	1566,49
675,34	1539,15
675,53	1572,43
675,72	1529,94
675,91	1556,66
676,09	1555,64
676,28	1566,39
676,47	1528,40
676,66	1508,43
676,85	1550,41
677,04	1542,84
677,22	1540,38
677,41	1517,75
677,60	1537,51
677,79	1520,31
677,98	1498,91
678,17	1480,99
678,36	1512,53
678,54	1479,45
678,73	1524,00
678,92	1488,98
679,11	1518,57
679,30	1494,51
679,48	1521,03
679,67	1513,76
679,86	1524,61
680,05	1543,04
680,24	1511,40
680,43	1516,21
680,61	1530,86
680,80	1537,00
680,99	1542,94
681,18	1551,95
681,37	1584,00
681,55	1603,15
681,74	1594,14
681,93	1574,89
682,12	1562,40
682,31	1561,58
682,49	1569,36
682,68	1597,31
682,87	1552,16
683,06	1539,87
683,25	1575,09
683,43	1570,18
683,62	1530,14
683,81	1541,71
684,00	1580,32
684,19	1526,25
684,37	1529,22
684,56	1508,12
684,75	1554,82
684,94	1521,44
685,12	1559,32
685,31	1538,13
685,50	1523,69
685,69	1539,25
685,88	1544,58
686,06	1547,75
686,25	1549,60
686,44	1539,25
686,63	1557,79
686,81	1590,15
687,00	1590,96
687,19	1595,06
687,38	1653,43
687,56	1679,03
687,75	1765,04
687,94	1823,72
688,13	1892,22
688,31	1992,67
688,50	2068,86
688,69	2155,69
688,88	2226,45
689,06	2229,21
689,25	2263,11
689,44	2208,73
689,63	2172,08
689,81	2080,63
690,00	2023,29
690,19	1992,37
690,38	1917,21
690,56	1813,37
690,75	1795,56
690,94	1739,03
691,13	1674,83
691,31	1656,19
691,50	1628,75
691,69	1609,50
691,87	1578,27
692,06	1567,52
692,25	1538,84
692,44	1506,59
692,62	1499,93
692,81	1534,03
693,00	1487,13
693,18	1469,32
693,37	1490,20
693,56	1438,19
693,75	1476,89
693,93	1537,72
694,12	1610,22
694,31	1671,76
694,49	1777,84
694,68	1871,84
694,87	1967,79
695,05	1975,78
695,24	1962,47
695,43	1885,97
695,62	1845,12
695,80	1772,93
695,99	1738,83
696,18	1631,82
696,36	1653,84
696,55	1542,73
696,74	1527,99
696,92	1591,17
697,11	1630,70
697,30	1769,96
697,48	1857,30
697,67	1945,16
697,86	1943,11
698,04	1905,74
698,23	1842,66
698,42	1780,81
698,60	1684,97
698,79	1623,63
698,98	1586,77
699,16	1514,27
699,35	1479,04
699,54	1468,09
699,72	1438,70
699,91	1459,69
700,10	1427,95
700,28	1402,65
700,47	1434,60
700,66	1386,78
700,84	1386,17
701,03	1376,75
701,21	1512,53
701,40	1370,19
701,59	1387,91
701,77	1382,79
701,96	1374,08
702,15	1377,67
702,33	1393,64
702,52	1371,52
702,71	1388,11
702,89	1392,31
703,08	1402,55
703,26	1423,13
703,45	1432,96
703,64	1426,10
703,82	1445,76
704,01	1429,79
704,20	1457,64
704,38	1479,56
704,57	1494,61
704,75	1515,80
704,94	1540,38
705,13	1564,75
705,31	1610,93
705,50	1580,72
705,68	1634,28
705,87	1661,11
706,06	1694,59
706,24	1729,10
706,43	1774,97
706,61	1862,73
706,80	1945,88
706,99	2111,15
707,17	2348,10
707,36	2571,94
707,54	2837,46
707,73	3108,20
707,92	3302,76
708,10	3396,25
708,29	3419,60
708,47	3408,23
708,66	3315,25
708,84	3193,09
709,03	3084,75
709,22	2963,92
709,40	2990,55
709,59	3070,93
709,77	3233,23
709,96	3418,26
710,14	3485,95
710,33	3516,16
710,52	3437,31
710,70	3297,23
710,89	3047,68
711,07	2822,61
711,26	2641,27
711,44	2467,39
711,63	2311,64
711,81	2176,48
712,00	2106,95
712,19	2088,62
712,37	2187,33
712,56	2239,15
712,74	2373,39
712,93	2600,41
713,11	2748,89
713,30	2888,25
713,48	2991,57
713,67	3003,35
713,85	2937,91
714,04	2837,87
714,22	2684,68
714,41	2506,92
714,59	2327,31
714,78	2194,40
714,97	2036,40
715,15	1909,53
715,34	1833,85
715,52	1725,00
715,71	1704,73
715,89	1627,11
716,08	1599,36
716,26	1538,13
716,45	1515,39
716,63	1487,13
716,82	1457,74
717,00	1405,93
717,19	1430,40
717,37	1388,73
717,56	1364,05
717,74	1375,11
717,93	1366,61
718,11	1368,15
718,30	1335,99
718,48	1364,25
718,67	1358,62
718,85	1343,47
719,04	1330,05
719,22	1316,43
719,41	1323,40
719,59	1346,74
719,78	1323,09
719,96	1312,34
720,15	1353,60
720,33	1333,02
720,52	1324,32
720,70	1318,89
720,88	1344,70
721,07	1318,38
721,25	1322,58
721,44	1315,00
721,62	1344,59
721,81	1307,22
721,99	1295,85
722,18	1313,67
722,36	1330,97
722,55	1311,21
722,73	1323,09
722,92	1333,84
723,10	1312,24
723,28	1321,04
723,47	1337,73
723,65	1334,97
723,84	1330,87
724,02	1308,65
724,21	1325,55
724,39	1314,39
724,58	1299,13
724,76	1330,46
724,94	1293,91
725,13	1312,85
725,31	1313,77
725,50	1328,21
725,68	1336,61
725,87	1313,98
726,05	1324,42
726,23	1316,74
726,42	1315,10
726,60	1312,13
726,79	1324,11
726,97	1318,38
727,16	1337,84
727,34	1330,05
727,52	1325,45
727,71	1357,60
727,89	1356,57
728,08	1401,43
728,26	1439,21
728,44	1430,20
728,63	1459,28
728,81	1395,08
729,00	1391,49
729,18	1377,87
729,36	1355,35
729,55	1371,42
729,73	1359,95
729,92	1340,09
730,10	1332,61
730,28	1300,97
730,47	1339,27
730,65	1319,71
730,84	1342,75
731,02	1313,67
731,20	1352,27
731,39	1314,18
731,57	1332,72
731,75	1323,09
731,94	1304,25
732,12	1325,96
732,31	1325,34
732,49	1291,76
732,67	1314,80
732,86	1299,13
733,04	1322,68
733,22	1291,04
733,41	1283,05
733,59	1310,09
733,78	1317,56
733,96	1330,57
734,14	1292,37
734,33	1283,77
734,51	1311,52
734,69	1311,62
734,88	1304,86
735,06	1315,72
735,24	1304,66
735,43	1304,45
735,61	1287,35
735,79	1300,97
735,98	1303,33
736,16	1336,30
736,34	1316,43
736,53	1306,60
736,71	1327,90
736,89	1300,66
737,08	1326,78
737,26	1302,82
737,44	1297,80
737,63	1301,59
737,81	1305,17
737,99	1321,35
738,18	1329,03
738,36	1363,03
738,54	1402,65
738,73	1504,13
738,91	1689,98
739,09	1822,79
739,28	1933,69
739,46	2001,38
739,64	1991,24
739,82	1952,33
740,01	1825,76
740,19	1774,67
740,37	1673,80
740,56	1567,41
740,74	1507,92
740,92	1455,70
741,11	1410,74
741,29	1395,90
741,47	1410,54
741,65	1364,15
741,84	1346,03
742,02	1350,43
742,20	1343,47
742,39	1323,91
742,57	1343,47
742,75	1327,08
742,93	1348,38
743,12	1365,79
743,30	1357,09
743,48	1351,35
743,67	1361,18
743,85	1349,30
744,03	1398,05
744,21	1367,84
744,40	1355,35
744,58	1346,23
744,76	1328,93
744,94	1323,40
745,13	1314,80
745,31	1309,16
745,49	1309,37
745,67	1295,24
745,86	1327,90
746,04	1302,41
746,22	1298,72
746,40	1276,09
746,59	1291,65
746,77	1311,62
746,95	1320,94
747,13	1316,33
747,32	1314,49
747,50	1311,83
747,68	1312,85
747,86	1318,38
748,05	1337,02
748,23	1303,12
748,41	1334,35
748,59	1295,24
748,77	1298,92
748,96	1320,12
749,14	1305,48
749,32	1339,88
749,50	1324,22
749,69	1318,79
749,87	1301,89
750,05	1298,62
750,23	1285,71
750,41	1329,13
750,60	1437,57
750,78	1536,39
750,96	1719,47
751,14	1841,43
751,32	1919,87
751,51	1966,15
751,69	2027,08
751,87	2055,96
752,05	2148,52
752,23	2203,51
752,42	2186,62
752,60	2150,57
752,78	2066,71
752,96	1945,98
753,14	1810,61
753,33	1682,92
753,51	1599,36
753,69	1522,15
753,87	1473,41
754,05	1442,08
754,23	1382,48
754,42	1357,91
754,60	1348,38
754,78	1327,49
754,96	1321,66
755,14	1304,04
755,32	1314,49
755,51	1272,61
755,69	1309,27
755,87	1284,28
756,05	1285,71
756,23	1283,36
756,41	1295,55
756,60	1287,25
756,78	1305,89
756,96	1269,02
757,14	1299,33
757,32	1260,52
757,50	1295,85
757,68	1288,07
757,87	1275,78
758,05	1270,56
758,23	1288,79
758,41	1294,52
758,59	1317,77
758,77	1305,07
758,95	1318,18
759,14	1285,61
759,32	1326,67
759,50	1277,63
759,68	1296,88
759,86	1264,01
760,04	1283,97
760,22	1292,06
760,40	1341,11
760,59	1301,18
760,77	1309,68
760,95	1275,58
761,13	1275,88
761,31	1298,92
761,49	1296,16
761,67	1316,84
761,85	1278,34
762,03	1295,34
762,22	1322,17
762,40	1304,04
762,58	1297,18
762,76	1291,86
762,94	1313,67
763,12	1314,80
763,30	1386,78
763,48	1512,53
763,66	1865,29
763,84	2461,76
764,02	3127,97
764,21	3686,96
764,39	4080,78
764,57	4134,03
764,75	3970,29
764,93	3624,19
765,11	3189,71
765,29	2810,63
765,47	2435,96
765,65	2130,19
765,83	1921,40
766,01	1749,78
766,19	1630,18
766,37	1546,11
766,56	1458,77
766,74	1390,16
766,92	1347,97
767,10	1311,11
767,28	1324,22
767,46	1315,31
767,64	1305,89
767,82	1301,38
768,00	1292,17
768,18	1299,44
768,36	1316,23
768,54	1324,22
768,72	1311,72
768,90	1289,81
769,08	1295,14
769,26	1295,24
769,44	1292,88
769,62	1282,85
769,80	1309,06
769,98	1280,80
770,16	1294,52
770,34	1292,27
770,52	1297,39
770,71	1284,18
770,89	1291,86
771,07	1319,30
771,25	1304,04
771,43	1297,80
771,61	1316,64
771,79	1289,71
771,97	1314,49
772,15	1315,41
772,33	1355,04
772,51	1510,17
772,69	1696,43
772,87	1960,73
773,05	2136,85
773,23	2284,51
773,41	2279,80
773,59	2265,67
773,77	2145,66
773,95	2005,06
774,13	1840,00
774,31	1710,16
774,49	1616,56
774,67	1502,39
774,85	1434,91
775,03	1382,89
775,21	1368,56
775,39	1317,15
775,57	1326,06
775,75	1317,05
775,93	1298,92
776,10	1287,87
776,28	1306,30
776,46	1279,98
776,64	1295,14
776,82	1271,69
777,00	1614,72
777,18	1272,40
777,36	1304,15
777,54	1266,67
777,72	1272,30
777,90	1304,04
778,08	1281,52
778,26	1281,72
778,44	1290,32
778,62	1295,24
778,80	1325,45
778,98	1303,94
779,16	1274,14
779,34	1303,74
779,52	1273,12
779,70	1306,30
779,88	1284,90
780,05	1268,20
780,23	1273,63
780,41	1286,53
780,59	1290,12
780,77	1296,16
780,95	1293,91
781,13	1299,85
781,31	1286,12
781,49	1305,78
781,67	1308,65
781,85	1271,79
782,03	1293,39
782,21	1281,72
782,39	1272,10
782,56	1291,14
782,74	1317,05
782,92	1277,93
783,10	1332,51
783,28	1266,57
783,46	1281,21
783,64	1288,68
783,82	1277,52
784,00	1301,89
784,18	1291,86
784,35	1279,57
784,53	1277,32
784,71	1275,17
784,89	1297,59
785,07	1262,27
785,25	1299,64
785,43	1298,21
785,61	1271,79
785,79	1277,83
785,96	1310,09
786,14	1277,42
786,32	1296,98
786,50	1289,20
786,68	1288,48
786,86	1276,19
787,04	1268,41
787,22	1275,88
787,39	1287,97
787,57	1264,72
787,75	1285,61
787,93	1286,84
788,11	1251,62
788,29	1288,99
788,47	1281,82
788,65	1275,88
788,82	1298,31
789,00	1286,23
789,18	1303,74
789,36	1275,47
789,54	1300,36
789,72	1273,22
789,89	1291,35
790,07	1300,66
790,25	1308,34
790,43	1291,04
790,61	1300,66
790,79	1294,73
790,96	1284,49
791,14	1304,15
791,32	1278,03
791,50	1276,50
791,68	1312,54
791,86	1290,12
792,03	1300,26
792,21	1281,11
792,39	1275,47
792,57	1274,35
792,75	1271,07
792,93	1278,65
793,10	1287,15
793,28	1275,88
793,46	1264,01
793,64	1294,21
793,82	1308,34
793,99	1301,07
794,17	1265,85
794,35	1290,02
794,53	1318,28
794,71	1327,29
794,88	1446,79
795,06	1610,22
795,24	1759,21
795,42	1886,79
795,60	1978,54
795,77	1955,09
795,95	1913,52
796,13	1780,30
796,31	1668,17
796,49	1565,88
796,66	1483,96
796,84	1402,04
797,02	1415,15
797,20	1328,82
797,37	1336,09
797,55	1307,01
797,73	1298,51
797,91	1283,87
798,08	1303,43
798,26	1323,19
798,44	1272,10
798,62	1267,08
798,80	1289,09
798,97	1296,47
799,15	1283,36
799,33	1298,00
799,51	1320,43
799,68	1287,97
799,86	1285,41
800,04	1305,48
800,22	1312,95
800,39	1303,63
800,57	1385,45
800,75	1420,27
800,93	1537,10
801,10	1629,47
801,28	1704,73
801,46	1783,99
801,63	1953,97
801,81	2107,05
801,99	2164,81
802,17	2223,79
802,34	2188,87
802,52	2078,07
802,70	1948,64
802,88	1790,03
803,05	1647,69
803,23	1493,99
803,41	1446,07
803,58	1399,38
803,76	1379,31
803,94	1373,57
804,12	1344,39
804,29	1339,99
804,47	1334,46
804,65	1322,07
804,82	1319,20
805,00	1311,52
805,18	1306,50
805,35	1301,48
805,53	1308,65
805,71	1295,95
805,89	1297,90
806,06	1287,97
806,24	1280,49
806,42	1295,55
806,59	1298,72
806,77	1307,73
806,95	1297,39
807,12	1304,25
807,30	1303,02
807,48	1268,20
807,65	1256,63
807,83	1286,94
808,01	1301,59
808,18	1291,35
808,36	1306,81
808,54	1267,80
808,71	1283,97
808,89	1283,87
809,07	1312,34
809,24	1297,70
809,42	1325,34
809,60	1282,95
809,77	1296,36
809,95	1312,75
810,13	1335,79
810,30	1433,07
810,48	1634,69
810,66	1800,88
810,83	1992,78
811,01	2100,40
811,18	2153,34
811,36	2301,20
811,54	2566,51
811,71	2988,40
811,89	3529,57
812,07	3890,53
812,24	4011,97
812,42	3871,58
812,59	3533,67
812,77	3022,80
812,95	2534,26
813,12	2119,75
813,30	1851,77
813,48	1684,15
813,65	1608,88
813,83	1535,05
814,00	1491,95
814,18	1463,07
814,36	1415,56
814,53	1380,23
814,71	1371,63
814,88	1347,56
815,06	1316,64
815,24	1330,36
815,41	1308,45
815,59	1302,20
815,76	1294,93
815,94	1312,75
816,12	1280,80
816,29	1304,97
816,47	1296,16
816,64	1316,43
816,82	1279,47
817,00	1311,21
817,17	1284,28
817,35	1304,45
817,52	1286,23
817,70	1281,93
817,87	1296,67
818,05	1267,18
818,23	1282,95
818,40	1311,42
818,58	1304,35
818,75	1266,77
818,93	1280,08
819,10	1280,59
819,28	1270,25
819,46	1280,49
819,63	1295,55
819,81	1303,74
819,98	1257,56
820,16	1303,74
820,33	1276,09
820,51	1316,43
820,68	1279,78
820,86	1285,20
821,03	1309,57
821,21	1290,83
821,39	1342,14
821,56	1311,83
821,74	1275,17
821,91	1273,32
822,09	1287,25
822,26	1276,60
822,44	1282,03
822,61	1273,53
822,79	1301,18
822,96	1288,58
823,14	1279,67
823,31	1271,28
823,49	1297,49
823,66	1293,09
823,84	1272,71
824,01	1278,34
824,19	1269,54
824,36	1300,26
824,54	1293,19
824,71	1307,63
824,89	1285,82
825,06	1308,86
825,24	1270,66
825,41	1300,46
825,59	1291,24
825,76	1297,90
825,94	1284,69
826,11	1313,36
826,29	1349,92
826,46	1403,47
826,64	1505,87
826,81	1594,34
826,99	1601,92
827,16	1599,87
827,34	1558,40
827,51	1510,48
827,69	1466,65
827,86	1385,55
828,04	1375,42
828,21	1356,16
828,39	1340,91
828,56	1301,07
828,74	1329,85
828,91	1303,33
829,09	1353,30
829,26	1302,30
829,43	1307,32
829,61	1293,19
829,78	1290,53
829,96	1296,98
830,13	1283,56
830,31	1295,85
830,48	1290,73
830,66	1280,19
830,83	1261,96
831,01	1290,53
831,18	1290,83
831,35	1283,77
831,53	1285,10
831,70	1279,98
831,88	1326,67
832,05	1290,73
832,23	1276,09
832,40	1290,53
832,57	1314,18
832,75	1264,31
832,92	1305,48
833,10	1301,48
833,27	1299,13
833,45	1268,51
833,62	1275,47
833,79	1285,51
833,97	1269,23
834,14	1281,21
834,32	1287,35
834,49	1286,23
834,66	1268,10
834,84	1270,15
835,01	1312,13
835,19	1264,42
835,36	1275,78
835,53	1299,54
835,71	1292,27
835,88	1284,79
836,06	1300,97
836,23	1311,52
836,40	1279,78
836,58	1271,07
836,75	1275,78
836,93	1270,36
837,10	1284,69
837,27	1281,72
837,45	1287,66
837,62	1266,87
837,79	1282,64
837,97	1287,35
838,14	1287,15
838,32	1284,28
838,49	1285,71
838,66	1292,27
838,84	1302,82
839,01	1293,39
839,18	1293,70
839,36	1259,50
839,53	1274,25
839,70	1288,58
839,88	1295,85
840,05	1318,48
840,23	1304,76
840,40	1304,45
840,57	1373,88
840,75	1468,80
840,92	1606,32
841,09	1689,68
841,27	1750,19
841,44	1733,09
841,61	1699,20
841,79	1604,69
841,96	1580,52
842,13	1528,40
842,31	1638,68
842,48	1730,33
842,65	1888,84
842,83	1970,15
843,00	2013,05
843,17	1956,63
843,35	1860,48
843,52	1732,38
843,69	1631,41
843,86	1526,15
844,04	1484,78
844,21	1411,15
844,38	1415,04
844,56	1403,88
844,73	1372,04
844,90	1354,94
845,08	1338,14
845,25	1329,23
845,42	1333,23
845,60	1309,27
845,77	1322,07
845,94	1290,83
846,11	1308,55
846,29	1304,66
846,46	1281,00
846,63	1271,17
846,81	1306,30
846,98	1283,46
847,15	1287,25
847,32	1280,19
847,50	1270,66
847,67	1283,15
847,84	1298,31
848,01	1292,06
848,19	1299,33
848,36	1285,41
848,53	1283,67
848,71	1309,37
848,88	1276,09
849,05	1262,16
849,22	1282,03
849,40	1265,75
849,57	1304,76
849,74	1285,00
849,91	1286,02
850,09	1265,03
850,26	1271,79
850,43	1277,52
850,60	1288,68
850,78	1281,41
850,95	1282,64
851,12	1274,25
851,29	1300,66
851,47	1305,17
851,64	1300,87
851,81	1308,14
851,98	1357,39
852,15	1407,98
852,33	1397,74
852,50	1460,10
852,67	1449,86
852,84	1447,91
853,02	1426,31
853,19	1407,16
853,36	1355,04
853,53	1320,12
853,70	1355,04
853,88	1348,08
854,05	1315,51
854,22	1309,78
854,39	1314,08
854,56	1309,37
854,74	1280,29
854,91	1311,52
855,08	1258,58
855,25	1290,94
855,42	1293,91
855,60	1284,18
855,77	1306,91
855,94	1322,58
856,11	1284,79
856,28	1276,91
856,46	1303,53
856,63	1283,77
856,80	1276,50
856,97	1302,20
857,14	1299,74
857,31	1253,25
857,49	1279,16
857,66	1290,63
857,83	1269,95
858,00	1278,96
858,17	1296,16
858,34	1276,81
858,52	1268,31
858,69	1282,85
858,86	1283,46
859,03	1275,17
859,20	1301,28
859,37	1274,04
859,55	1289,30
859,72	1288,48
859,89	1284,28
860,06	1299,95
860,23	1316,64
860,40	1268,61
860,57	1294,73
860,75	1253,36
860,92	1302,71
861,09	1289,20
861,26	1302,30
861,43	1287,76
861,60	1270,76
861,77	1263,80
861,95	1286,23
862,12	1300,56
862,29	1280,80
862,46	1292,27
862,63	1308,14
862,80	1316,43
862,97	1305,48
863,14	1270,25
863,31	1310,19
863,49	1302,41
863,66	1300,97
863,83	1310,09
864,00	1309,47
864,17	1265,75
864,34	1289,09
864,51	1277,32
864,68	1282,23
864,85	1279,78
865,02	1279,67
865,20	1289,40
865,37	1278,14
865,54	1274,96
865,71	1307,12
865,88	1273,63
866,05	1271,38
866,22	1297,39
866,39	1282,03
866,56	1284,49
866,73	1288,07
866,90	1317,15
867,07	1319,10
867,25	1290,12
867,42	1323,09
867,59	1302,61
867,76	1321,45
867,93	1287,05
868,10	1306,71
868,27	1269,74
868,44	1295,75
868,61	1284,18
868,78	1306,09
868,95	1282,95
869,12	1304,76
869,29	1279,37
869,46	1304,25
869,63	1280,49
869,80	1279,26
869,97	1308,86
870,14	1300,05
870,32	1273,12
870,49	1292,47
870,66	1290,43
870,83	1303,53
871,00	1278,75
871,17	1288,58
871,34	1284,90
871,51	1294,83
871,68	1278,55
871,85	1293,80
872,02	1308,04
872,19	1271,38
872,36	1262,06
872,53	1307,63
872,70	1287,97
872,87	1281,72
873,04	1264,31
873,21	1281,31
873,38	1255,92
873,55	1311,31
873,72	1274,35
873,89	1274,76
874,06	1269,43
874,23	1260,93
874,40	1271,99
874,57	1266,46
874,74	1307,53
874,91	1270,05
875,08	1271,07
875,25	1288,89
875,42	1310,90
875,59	1278,85
875,76	1284,69
875,93	1292,06
876,10	1303,84
876,27	1277,22
876,44	1333,43
876,61	1294,62
876,78	1284,79
876,95	1303,84
877,12	1282,54
877,29	1293,50
877,46	1271,17
877,62	1294,73
877,79	1271,38
877,96	1299,23
878,13	1288,17
878,30	1288,68
878,47	1295,75
878,64	1298,31
878,81	1276,70
878,98	1273,12
879,15	1293,39
879,32	1310,50
879,49	1297,29
879,66	1313,46
879,83	1290,12
880,00	1322,78
880,17	1259,91
880,34	1286,64
880,51	1294,62
880,67	1296,88
880,84	1243,73
881,01	1284,38
881,18	1304,56
881,35	1267,18
881,52	1321,66
881,69	1288,48
881,86	1304,15
882,03	1275,17
882,20	1297,18
882,37	1286,02
882,54	1283,87
882,70	1277,83
882,87	1280,08
883,04	1290,73
883,21	1284,69
883,38	1283,97
883,55	1278,85
883,72	1269,95
883,89	1273,02
884,06	1273,22
884,23	1283,97
884,39	1256,22
884,56	1302,00
884,73	1311,93
884,90	1279,06
885,07	1309,27
885,24	1266,16
885,41	1315,72
885,58	1283,97
885,74	1280,70
885,91	1295,75
886,08	1290,53
886,25	1258,99
886,42	1290,12
886,59	1285,61
886,76	1276,70
886,93	1257,25
887,09	1306,60
887,26	1321,96
887,43	1277,11
887,60	1290,73
887,77	1290,73
887,94	1270,05
888,10	1309,47
888,27	1298,21
888,44	1276,50
888,61	1253,66
888,78	1265,54
888,95	1287,66
889,12	1271,48
889,28	1291,35
889,45	1275,88
889,62	1293,50
889,79	1297,29
889,96	1282,95
890,13	1285,10
890,29	1285,71
890,46	1331,28
890,63	1288,48
890,80	1294,21
890,97	1272,20
891,13	1281,62
891,30	1294,21
891,47	1325,04
891,64	1280,80
891,81	1265,95
891,98	1272,71
892,14	1282,54
892,31	1276,09
892,48	1289,81
892,65	1267,18
892,82	1261,24
892,98	1273,32
893,15	1299,74
893,32	1291,45
>>>>>End Processed Spectral Data<<<<<
