SpectraSuite Datei
++++++++++++++++++++++++++++++++++++
Datum: Mon Mar 09 10:17:11 CET 2020
Benutzer: Lichtquellen1
Dark-Spektrum vorhanden: Ja
Referenz-Spektrum vorhanden: Nein
Zahl der probierten Teilspektren: 1
Spektrometer: USB4F05832
Integrationszeit (usec): 50000 (USB4F05832)
Spektren Durchschnitt berechnet: 20 (USB4F05832)
Boxcar Glättung: 0 (USB4F05832)
Dunkelstromkorrektur: Nein (USB4F05832)
Puls/Lampe aktiviert: Nein (USB4F05832)
Correct for Detector Non-linearity: Nein (USB4F05832)
Streulichtkorrektur: Nein (USB4F05832)
Anzahl Pixel in verarbeitetem Spektrum: 3648
>>>>>Begin Processed Spectral Data<<<<<
177,54	1235,64
177,75	1235,64
177,97	1235,64
178,19	1229,50
178,41	1224,69
178,63	1309,47
178,85	1265,95
179,07	1275,47
179,29	1297,08
179,51	1272,20
179,73	1300,97
179,95	1272,40
180,17	1298,21
180,39	1287,66
180,61	1279,47
180,83	1316,64
181,05	1274,96
181,27	1273,53
181,49	1273,02
181,71	1284,08
181,92	1319,20
182,14	1297,08
182,36	1266,87
182,58	1291,14
182,80	1269,02
183,02	1312,65
183,24	1307,53
183,46	1302,71
183,68	1265,64
183,90	1290,73
184,12	1270,66
184,34	1306,91
184,56	1283,56
184,78	1259,30
185,00	1284,28
185,21	1315,21
185,43	1274,55
185,65	1265,44
185,87	1281,21
186,09	1334,76
186,31	1269,54
186,53	1283,26
186,75	1286,74
186,97	1315,31
187,19	1308,55
187,41	1264,52
187,63	1314,08
187,84	1262,98
188,06	1301,38
188,28	1274,55
188,50	1295,34
188,72	1312,03
188,94	1324,01
189,16	1271,58
189,38	1290,53
189,60	1287,56
189,82	1298,62
190,03	1281,11
190,25	1286,74
190,47	1295,44
190,69	1296,67
190,91	1261,04
191,13	1298,51
191,35	1325,85
191,57	1277,42
191,79	1302,10
192,01	1293,29
192,22	1292,88
192,44	1302,41
192,66	1302,82
192,88	1298,92
193,10	1291,96
193,32	1286,74
193,54	1305,68
193,76	1314,90
193,98	1287,35
194,19	1301,69
194,41	1287,05
194,63	1281,41
194,85	1286,74
195,07	1316,84
195,29	1268,92
195,51	1307,01
195,73	1272,10
195,94	1281,31
196,16	1284,69
196,38	1330,46
196,60	1279,47
196,82	1281,52
197,04	1296,26
197,26	1298,72
197,48	1292,47
197,69	1297,39
197,91	1279,57
198,13	1300,56
198,35	1292,17
198,57	1295,95
198,79	1316,13
199,01	1301,79
199,22	1281,62
199,44	1302,30
199,66	1278,75
199,88	1298,62
200,10	1299,85
200,32	1308,14
200,54	1290,02
200,75	1314,90
200,97	1278,55
201,19	1315,10
201,41	1312,75
201,63	1302,92
201,85	1270,87
202,06	1308,24
202,28	1272,91
202,50	1302,51
202,72	1262,88
202,94	1276,91
203,16	1295,44
203,38	1290,22
203,59	1278,75
203,81	1309,06
204,03	1274,96
204,25	1297,49
204,47	1318,07
204,69	1310,29
204,90	1294,01
205,12	1288,99
205,34	1289,30
205,56	1287,66
205,78	1273,53
206,00	1341,32
206,21	1301,07
206,43	1291,35
206,65	1281,52
206,87	1272,30
207,09	1303,22
207,30	1293,80
207,52	1305,68
207,74	1308,45
207,96	1277,22
208,18	1287,46
208,40	1276,50
208,61	1294,73
208,83	1289,40
209,05	1272,40
209,27	1261,65
209,49	1310,39
209,70	1310,90
209,92	1303,84
210,14	1269,64
210,36	1289,30
210,58	1296,06
210,79	1299,13
211,01	1268,82
211,23	1304,56
211,45	1293,09
211,67	1304,76
211,88	1277,01
212,10	1296,67
212,32	1286,02
212,54	1294,42
212,76	1289,50
212,97	1290,32
213,19	1273,53
213,41	1317,05
213,63	1280,08
213,85	1276,19
214,06	1276,50
214,28	1311,31
214,50	1287,46
214,72	1306,81
214,94	1301,38
215,15	1287,15
215,37	1286,84
215,59	1293,70
215,81	1307,83
216,02	1290,43
216,24	1313,06
216,46	1275,58
216,68	1315,82
216,90	1287,25
217,11	1312,13
217,33	1285,92
217,55	1326,26
217,77	1295,95
217,98	1313,46
218,20	1312,75
218,42	1309,37
218,64	1299,13
218,85	1319,71
219,07	1293,91
219,29	1301,38
219,51	1296,47
219,73	1285,20
219,94	1291,55
220,16	1305,89
220,38	1301,18
220,60	1290,22
220,81	1255,92
221,03	1254,28
221,25	1299,13
221,47	1262,16
221,68	1303,22
221,90	1295,55
222,12	1288,68
222,34	1296,36
222,55	1313,67
222,77	1316,43
222,99	1290,83
223,21	1286,64
223,42	1303,02
223,64	1296,26
223,86	1282,34
224,08	1275,27
224,29	1320,94
224,51	1275,68
224,73	1289,20
224,94	1291,14
225,16	1283,56
225,38	1274,76
225,60	1300,36
225,81	1291,35
226,03	1293,19
226,25	1264,31
226,47	1300,36
226,68	1294,11
226,90	1289,91
227,12	1295,03
227,33	1296,36
227,55	1277,63
227,77	1291,14
227,99	1322,58
228,20	1289,61
228,42	1281,31
228,64	1291,24
228,86	1304,76
229,07	1303,02
229,29	1273,43
229,51	1271,99
229,72	1323,50
229,94	1306,40
230,16	1305,07
230,38	1275,99
230,59	1276,40
230,81	1318,89
231,03	1287,76
231,24	1306,40
231,46	1283,56
231,68	1287,15
231,89	1284,08
232,11	1286,94
232,33	1308,24
232,55	1291,86
232,76	1316,64
232,98	1293,29
233,20	1278,44
233,41	1298,92
233,63	1297,08
233,85	1297,18
234,06	1297,59
234,28	1303,84
234,50	1268,82
234,71	1301,48
234,93	1326,37
235,15	1290,94
235,37	1265,44
235,58	1290,83
235,80	1286,02
236,02	1271,99
236,23	1305,48
236,45	1272,51
236,67	1304,66
236,88	1277,73
237,10	1296,57
237,32	1307,73
237,53	1309,98
237,75	1300,36
237,97	1265,03
238,18	1298,41
238,40	1298,82
238,62	1276,09
238,83	1291,35
239,05	1290,43
239,27	1283,56
239,48	1266,77
239,70	1285,82
239,92	1308,96
240,13	1312,03
240,35	1288,38
240,57	1304,45
240,78	1307,94
241,00	1273,94
241,22	1306,60
241,43	1317,36
241,65	1292,78
241,87	1320,22
242,08	1332,51
242,30	1288,07
242,52	1303,63
242,73	1301,59
242,95	1270,66
243,16	1279,78
243,38	1336,91
243,60	1289,61
243,81	1289,61
244,03	1297,29
244,25	1285,92
244,46	1285,82
244,68	1288,27
244,90	1285,00
245,11	1283,36
245,33	1290,02
245,55	1304,56
245,76	1286,12
245,98	1282,13
246,19	1309,16
246,41	1313,36
246,63	1304,04
246,84	1306,40
247,06	1281,52
247,28	1287,66
247,49	1289,09
247,71	1276,70
247,92	1291,86
248,14	1316,23
248,36	1308,45
248,57	1317,97
248,79	1313,16
249,01	1293,70
249,22	1296,16
249,44	1303,53
249,65	1297,90
249,87	1308,96
250,09	1309,27
250,30	1294,83
250,52	1289,81
250,73	1308,96
250,95	1277,83
251,17	1304,15
251,38	1281,00
251,60	1289,20
251,81	1303,43
252,03	1340,91
252,25	1272,81
252,46	1277,32
252,68	1303,63
252,89	1321,04
253,11	1287,46
253,33	1314,49
253,54	1277,73
253,76	1298,82
253,97	1289,71
254,19	1299,33
254,41	1270,87
254,62	1322,58
254,84	1315,31
255,05	1296,16
255,27	1308,86
255,49	1322,27
255,70	1292,17
255,92	1290,32
256,13	1288,79
256,35	1302,71
256,56	1301,48
256,78	1308,65
257,00	1315,41
257,21	1291,35
257,43	1284,28
257,64	1295,24
257,86	1311,11
258,08	1288,38
258,29	1318,38
258,51	1286,84
258,72	1301,38
258,94	1301,48
259,15	1284,28
259,37	1295,95
259,59	1284,28
259,80	1304,76
260,02	1295,14
260,23	1295,03
260,45	1270,05
260,66	1313,26
260,88	1296,57
261,09	1288,07
261,31	1286,53
261,53	1316,02
261,74	1329,54
261,96	1277,32
262,17	1283,36
262,39	1288,38
262,60	1292,06
262,82	1304,56
263,03	1275,88
263,25	1302,00
263,46	1293,91
263,68	1300,87
263,90	1296,77
264,11	1282,44
264,33	1321,96
264,54	1305,58
264,76	1296,47
264,97	1304,04
265,19	1283,97
265,40	1317,56
265,62	1282,34
265,83	1306,60
266,05	1292,78
266,26	1288,89
266,48	1321,35
266,70	1318,48
266,91	1262,88
267,13	1317,05
267,34	1283,56
267,56	1300,56
267,77	1295,95
267,99	1283,77
268,20	1314,18
268,42	1304,97
268,63	1271,58
268,85	1339,17
269,06	1322,68
269,28	1317,15
269,49	1290,12
269,71	1294,01
269,92	1293,09
270,14	1289,71
270,35	1286,64
270,57	1307,63
270,78	1288,99
271,00	1290,73
271,21	1341,42
271,43	1268,61
271,64	1288,27
271,86	1313,77
272,07	1270,15
272,29	1318,48
272,50	1283,56
272,72	1333,02
272,93	1323,60
273,15	1315,72
273,36	1302,00
273,58	1311,11
273,79	1305,27
274,01	1299,33
274,22	1288,99
274,44	1280,19
274,65	1290,12
274,87	1310,90
275,08	1289,81
275,30	1303,12
275,51	1326,16
275,73	1338,65
275,94	1283,67
276,16	1289,09
276,37	1281,41
276,59	1304,04
276,80	1288,89
277,02	1322,27
277,23	1285,51
277,45	1313,36
277,66	1269,33
277,88	1321,86
278,09	1319,92
278,30	1309,37
278,52	1283,97
278,73	1332,92
278,95	1294,73
279,16	1328,72
279,38	1304,56
279,59	1301,38
279,81	1287,97
280,02	1299,03
280,24	1289,20
280,45	1307,73
280,67	1309,88
280,88	1322,17
281,09	1280,70
281,31	1270,87
281,52	1290,73
281,74	1318,99
281,95	1287,05
282,17	1300,97
282,38	1306,81
282,60	1308,75
282,81	1313,36
283,02	1286,23
283,24	1268,61
283,45	1308,04
283,67	1298,31
283,88	1310,29
284,10	1294,11
284,31	1293,19
284,53	1289,91
284,74	1299,95
284,95	1278,65
285,17	1302,71
285,38	1290,32
285,60	1293,91
285,81	1278,96
286,03	1304,04
286,24	1312,34
286,45	1307,83
286,67	1282,54
286,88	1295,24
287,10	1305,27
287,31	1285,10
287,53	1283,46
287,74	1295,85
287,95	1289,91
288,17	1311,31
288,38	1299,23
288,60	1293,09
288,81	1289,40
289,02	1301,59
289,24	1316,13
289,45	1285,10
289,67	1308,24
289,88	1300,66
290,10	1315,21
290,31	1308,04
290,52	1295,65
290,74	1300,97
290,95	1306,40
291,17	1310,60
291,38	1273,94
291,59	1288,68
291,81	1285,92
292,02	1305,78
292,24	1294,93
292,45	1308,45
292,66	1291,76
292,88	1308,45
293,09	1291,86
293,31	1308,45
293,52	1294,52
293,73	1274,04
293,95	1293,39
294,16	1313,46
294,37	1304,15
294,59	1309,57
294,80	1326,78
295,02	1294,73
295,23	1270,87
295,44	1302,92
295,66	1277,32
295,87	1330,97
296,09	1294,11
296,30	1313,57
296,51	1295,24
296,73	1284,69
296,94	1283,05
297,15	1281,41
297,37	1275,37
297,58	1286,53
297,79	1296,77
298,01	1307,12
298,22	1297,90
298,44	1292,99
298,65	1292,37
298,86	1305,99
299,08	1294,62
299,29	1288,48
299,50	1291,55
299,72	1283,15
299,93	1308,34
300,14	1310,90
300,36	1270,97
300,57	1284,38
300,79	1295,85
301,00	1301,38
301,21	1258,27
301,43	1297,49
301,64	1278,96
301,85	1282,34
302,07	1285,20
302,28	1294,42
302,49	1316,43
302,71	1299,03
302,92	1306,09
303,13	1309,06
303,35	1286,74
303,56	1302,00
303,77	1278,65
303,99	1317,56
304,20	1290,43
304,41	1273,22
304,63	1277,93
304,84	1301,18
305,05	1318,38
305,27	1324,93
305,48	1306,81
305,69	1299,33
305,91	1309,37
306,12	1290,53
306,33	1285,61
306,55	1301,28
306,76	1268,31
306,97	1290,12
307,19	1294,01
307,40	1300,15
307,61	1319,81
307,82	1288,68
308,04	1318,58
308,25	1297,90
308,46	1293,91
308,68	1282,23
308,89	1304,15
309,10	1302,30
309,32	1295,14
309,53	1282,85
309,74	1294,62
309,96	1291,14
310,17	1295,95
310,38	1278,75
310,59	1293,80
310,81	1300,66
311,02	1275,99
311,23	1309,27
311,45	1287,87
311,66	1297,18
311,87	1274,14
312,09	1310,70
312,30	1299,13
312,51	1309,27
312,72	1315,92
312,94	1311,42
313,15	1312,34
313,36	1309,06
313,58	1278,14
313,79	1328,11
314,00	1293,80
314,21	1279,37
314,43	1300,97
314,64	1294,83
314,85	1274,55
315,06	1284,90
315,28	1300,97
315,49	1312,65
315,70	1288,68
315,92	1300,97
316,13	1327,70
316,34	1309,06
316,55	1280,39
316,77	1283,77
316,98	1320,43
317,19	1307,22
317,40	1280,49
317,62	1290,43
317,83	1308,14
318,04	1299,85
318,25	1291,96
318,47	1295,14
318,68	1290,63
318,89	1325,34
319,11	1293,09
319,32	1299,64
319,53	1304,35
319,74	1312,75
319,96	1312,34
320,17	1293,29
320,38	1267,80
320,59	1322,17
320,81	1296,06
321,02	1305,38
321,23	1299,44
321,44	1322,27
321,65	1291,65
321,87	1290,83
322,08	1322,89
322,29	1293,19
322,50	1293,70
322,72	1306,81
322,93	1304,15
323,14	1291,86
323,35	1288,58
323,57	1326,98
323,78	1281,93
323,99	1289,81
324,20	1324,01
324,41	1299,03
324,63	1309,47
324,84	1300,26
325,05	1303,63
325,26	1303,33
325,48	1297,18
325,69	1307,63
325,90	1303,63
326,11	1294,73
326,32	1290,12
326,54	1304,35
326,75	1294,11
326,96	1315,41
327,17	1292,68
327,39	1328,11
327,60	1306,81
327,81	1293,29
328,02	1285,82
328,23	1299,44
328,45	1304,04
328,66	1296,98
328,87	1285,71
329,08	1309,47
329,29	1300,15
329,51	1297,08
329,72	1269,33
329,93	1327,60
330,14	1299,54
330,35	1297,39
330,56	1277,42
330,78	1303,74
330,99	1295,65
331,20	1300,97
331,41	1310,09
331,62	1289,09
331,84	1280,39
332,05	1295,24
332,26	1312,54
332,47	1306,40
332,68	1281,00
332,90	1290,02
333,11	1271,89
333,32	1348,18
333,53	1288,17
333,74	1276,29
333,95	1312,24
334,17	1303,22
334,38	1308,24
334,59	1281,93
334,80	1304,56
335,01	1318,07
335,22	1295,85
335,44	1283,15
335,65	1272,10
335,86	1311,21
336,07	1294,83
336,28	1282,23
336,49	1294,21
336,71	1284,79
336,92	1326,37
337,13	1310,39
337,34	1273,94
337,55	1321,76
337,76	1296,16
337,97	1298,31
338,19	1305,17
338,40	1301,07
338,61	1291,55
338,82	1310,19
339,03	1301,48
339,24	1278,14
339,45	1273,43
339,67	1302,20
339,88	1286,02
340,09	1298,21
340,30	1275,78
340,51	1334,56
340,72	1287,97
340,93	1288,48
341,15	1290,43
341,36	1336,09
341,57	1294,32
341,78	1284,18
341,99	1302,10
342,20	1315,82
342,41	1303,53
342,62	1328,21
342,84	1272,61
343,05	1324,93
343,26	1287,25
343,47	1313,46
343,68	1282,23
343,89	1297,90
344,10	1300,26
344,31	1303,43
344,53	1274,25
344,74	1293,70
344,95	1282,85
345,16	1275,37
345,37	1288,68
345,58	1294,62
345,79	1269,02
346,00	1295,95
346,21	1291,76
346,42	1277,83
346,64	1283,15
346,85	1286,12
347,06	1304,56
347,27	1282,95
347,48	1308,86
347,69	1316,33
347,90	1298,92
348,11	1308,55
348,32	1279,88
348,53	1301,59
348,75	1280,80
348,96	1292,47
349,17	1264,62
349,38	1299,85
349,59	1296,88
349,80	1285,92
350,01	1322,17
350,22	1314,28
350,43	1292,17
350,64	1302,61
350,85	1323,70
351,06	1287,05
351,28	1284,08
351,49	1278,03
351,70	1294,21
351,91	1281,21
352,12	1296,36
352,33	1304,15
352,54	1261,75
352,75	1280,90
352,96	1286,33
353,17	1286,02
353,38	1292,58
353,59	1319,61
353,80	1326,16
354,01	1307,01
354,22	1288,38
354,44	1289,50
354,65	1320,02
354,86	1292,06
355,07	1270,15
355,28	1280,29
355,49	1279,16
355,70	1294,52
355,91	1290,12
356,12	1277,01
356,33	1279,47
356,54	1296,36
356,75	1286,94
356,96	1293,80
357,17	1305,89
357,38	1296,16
357,59	1292,47
357,80	1304,66
358,01	1301,48
358,22	1307,94
358,43	1287,87
358,64	1286,23
358,85	1273,02
359,07	1313,57
359,28	1283,56
359,49	1294,73
359,70	1274,86
359,91	1300,87
360,12	1272,61
360,33	1308,96
360,54	1284,38
360,75	1270,76
360,96	1275,17
361,17	1269,43
361,38	1277,73
361,59	1315,72
361,80	1276,19
362,01	1304,35
362,22	1288,58
362,43	1278,03
362,64	1294,11
362,85	1294,01
363,06	1320,43
363,27	1301,79
363,48	1301,79
363,69	1338,35
363,90	1278,34
364,11	1290,02
364,32	1274,96
364,53	1309,37
364,74	1295,55
364,95	1306,19
365,16	1285,71
365,37	1318,28
365,58	1295,85
365,79	1294,21
366,00	1289,61
366,21	1285,31
366,42	1299,95
366,63	1309,88
366,84	1283,46
367,05	1290,73
367,26	1291,96
367,47	1320,12
367,68	1290,53
367,89	1302,92
368,10	1291,55
368,31	1270,97
368,52	1310,39
368,73	1294,11
368,94	1273,22
369,15	1293,60
369,36	1280,08
369,57	1268,20
369,78	1272,20
369,99	1293,39
370,20	1296,67
370,40	1267,90
370,61	1278,24
370,82	1312,54
371,03	1294,73
371,24	1292,88
371,45	1286,94
371,66	1270,97
371,87	1293,80
372,08	1311,83
372,29	1277,22
372,50	1306,40
372,71	1261,04
372,92	1312,13
373,13	1269,02
373,34	1297,08
373,55	1267,49
373,76	1308,14
373,97	1290,32
374,18	1295,65
374,39	1302,51
374,60	1310,19
374,81	1286,64
375,01	1272,91
375,22	1304,25
375,43	1292,37
375,64	1258,68
375,85	1291,86
376,06	1286,33
376,27	1305,78
376,48	1287,97
376,69	1304,35
376,90	1278,85
377,11	1286,02
377,32	1289,61
377,53	1303,74
377,74	1285,00
377,94	1276,91
378,15	1293,60
378,36	1323,60
378,57	1265,64
378,78	1322,37
378,99	1271,48
379,20	1336,50
379,41	1310,19
379,62	1292,27
379,83	1265,75
380,04	1304,35
380,25	1284,18
380,45	1303,94
380,66	1296,77
380,87	1285,20
381,08	1282,44
381,29	1274,14
381,50	1300,77
381,71	1285,71
381,92	1286,12
382,13	1266,98
382,34	1295,14
382,55	1288,89
382,75	1300,56
382,96	1293,70
383,17	1254,89
383,38	1316,13
383,59	1310,29
383,80	1275,99
384,01	1287,56
384,22	1300,36
384,43	1303,53
384,63	1290,53
384,84	1282,34
385,05	1295,55
385,26	1284,18
385,47	1295,44
385,68	1270,36
385,89	1307,22
386,10	1287,87
386,30	1314,80
386,51	1278,44
386,72	1288,89
386,93	1280,19
387,14	1292,78
387,35	1291,96
387,56	1327,49
387,77	1272,20
387,97	1284,49
388,18	1275,99
388,39	1288,79
388,60	1282,54
388,81	1315,10
389,02	1286,02
389,23	1300,77
389,43	1279,16
389,64	1293,29
389,85	1272,91
390,06	1310,90
390,27	1280,70
390,48	1299,95
390,69	1277,52
390,89	1292,88
391,10	1287,97
391,31	1283,46
391,52	1287,35
391,73	1314,80
391,94	1276,09
392,14	1265,64
392,35	1271,99
392,56	1282,85
392,77	1276,09
392,98	1296,06
393,19	1305,17
393,39	1302,92
393,60	1298,72
393,81	1304,56
394,02	1308,96
394,23	1277,93
394,44	1259,40
394,64	1298,31
394,85	1276,50
395,06	1305,78
395,27	1290,12
395,48	1309,06
395,69	1297,59
395,89	1276,81
396,10	1282,44
396,31	1324,42
396,52	1275,17
396,73	1289,61
396,93	1265,64
397,14	1312,13
397,35	1306,71
397,56	1300,77
397,77	1273,73
397,97	1297,08
398,18	1293,50
398,39	1287,25
398,60	1298,31
398,81	1262,78
399,01	1259,91
399,22	1300,15
399,43	1304,56
399,64	1319,92
399,85	1293,39
400,05	1275,99
400,26	1265,64
400,47	1283,67
400,68	1262,88
400,89	1335,48
401,09	1257,66
401,30	1276,29
401,51	1295,14
401,72	1280,29
401,93	1317,66
402,13	1278,24
402,34	1314,18
402,55	1293,09
402,76	1278,96
402,96	1305,17
403,17	1281,31
403,38	1314,90
403,59	1295,14
403,80	1308,14
404,00	1292,68
404,21	1301,79
404,42	1279,57
404,63	1281,21
404,83	1289,30
405,04	1307,22
405,25	1298,21
405,46	1308,34
405,66	1289,91
405,87	1299,33
406,08	1274,04
406,29	1312,03
406,49	1281,52
406,70	1303,12
406,91	1263,08
407,12	1287,15
407,32	1306,91
407,53	1288,27
407,74	1293,09
407,95	1307,63
408,15	1288,38
408,36	1287,46
408,57	1294,32
408,78	1293,91
408,98	1299,54
409,19	1307,83
409,40	1270,76
409,61	1292,58
409,81	1290,43
410,02	1275,47
410,23	1290,94
410,44	1301,28
410,64	1267,90
410,85	1298,41
411,06	1290,53
411,26	1315,41
411,47	1290,94
411,68	1322,89
411,89	1280,19
412,09	1272,61
412,30	1306,09
412,51	1287,66
412,72	1287,97
412,92	1297,29
413,13	1307,42
413,34	1290,94
413,54	1275,07
413,75	1284,79
413,96	1285,10
414,17	1273,22
414,37	1297,29
414,58	1307,01
414,79	1298,10
414,99	1312,34
415,20	1304,76
415,41	1284,08
415,61	1294,93
415,82	1306,60
416,03	1298,62
416,24	1278,96
416,44	1293,19
416,65	1298,00
416,86	1299,23
417,06	1269,33
417,27	1286,53
417,48	1288,48
417,68	1285,82
417,89	1294,62
418,10	1278,65
418,30	1303,43
418,51	1282,44
418,72	1297,90
418,92	1273,63
419,13	1303,22
419,34	1286,84
419,55	1308,04
419,75	1464,40
419,96	1298,72
420,17	1302,30
420,37	1295,95
420,58	1296,57
420,79	1283,15
420,99	1285,20
421,20	1329,44
421,41	1289,71
421,61	1292,99
421,82	1281,41
422,03	1290,73
422,23	1281,82
422,44	1295,75
422,65	1329,13
422,85	1285,20
423,06	1297,90
423,26	1299,74
423,47	1297,29
423,68	1302,20
423,88	1287,97
424,09	1301,48
424,30	1297,90
424,50	1270,66
424,71	1285,61
424,92	1299,64
425,12	1326,88
425,33	1317,66
425,54	1282,03
425,74	1299,13
425,95	1309,37
426,15	1266,67
426,36	1278,85
426,57	1303,33
426,77	1298,00
426,98	1284,69
427,19	1275,58
427,39	1286,43
427,60	1303,02
427,81	1302,30
428,01	1295,85
428,22	1297,49
428,42	1289,71
428,63	1280,70
428,84	1270,36
429,04	1293,80
429,25	1280,49
429,45	1279,37
429,66	1311,01
429,87	1280,59
430,07	1317,66
430,28	1299,54
430,49	1307,32
430,69	1299,03
430,90	1303,63
431,10	1276,70
431,31	1316,23
431,52	1301,89
431,72	1290,02
431,93	1294,73
432,13	1303,33
432,34	1300,77
432,55	1291,45
432,75	1282,44
432,96	1297,59
433,16	1296,98
433,37	1294,93
433,58	1265,64
433,78	1275,78
433,99	1284,49
434,19	1267,08
434,40	1288,38
434,60	1277,01
434,81	1279,88
435,02	1275,17
435,22	1299,13
435,43	1282,23
435,63	1279,47
435,84	1281,93
436,05	1304,86
436,25	1292,37
436,46	1298,72
436,66	1285,61
436,87	1296,98
437,07	1260,42
437,28	1282,13
437,48	1290,94
437,69	1266,26
437,90	1272,40
438,10	1288,89
438,31	1303,22
438,51	1271,48
438,72	1288,89
438,92	1263,29
439,13	1306,40
439,34	1286,94
439,54	1291,96
439,75	1282,44
439,95	1309,88
440,16	1281,93
440,36	1328,41
440,57	1308,96
440,77	1297,29
440,98	1286,12
441,18	1282,64
441,39	1297,29
441,60	1282,44
441,80	1283,15
442,01	1308,86
442,21	1284,18
442,42	1312,24
442,62	1291,14
442,83	1269,33
443,03	1289,50
443,24	1294,83
443,44	1296,26
443,65	1288,79
443,85	1291,55
444,06	1297,80
444,26	1300,05
444,47	1285,31
444,67	1287,56
444,88	1292,58
445,09	1323,50
445,29	1270,15
445,50	1322,89
445,70	1264,93
445,91	1290,22
446,11	1263,80
446,32	1295,95
446,52	1299,33
446,73	1287,05
446,93	1266,57
447,14	1286,23
447,34	1293,60
447,55	1275,47
447,75	1281,11
447,96	1297,29
448,16	1296,77
448,37	1296,36
448,57	1272,30
448,78	1289,71
448,98	1295,85
449,19	1303,74
449,39	1286,23
449,60	1304,97
449,80	1283,97
450,01	1275,68
450,21	1269,02
450,42	1294,62
450,62	1286,84
450,83	1282,75
451,03	1287,05
451,23	1281,41
451,44	1307,83
451,64	1281,41
451,85	1300,05
452,05	1288,58
452,26	1288,58
452,46	1307,01
452,67	1305,78
452,87	1274,76
453,08	1297,70
453,28	1280,80
453,49	1290,63
453,69	1306,40
453,90	1294,93
454,10	1315,31
454,31	1295,14
454,51	1291,04
454,71	1289,30
454,92	1280,59
455,12	1272,51
455,33	1287,97
455,53	1328,21
455,74	1281,11
455,94	1281,62
456,15	1316,23
456,35	1303,94
456,55	1276,40
456,76	1294,52
456,96	1294,11
457,17	1256,53
457,37	1316,74
457,58	1285,71
457,78	1280,29
457,99	1275,27
458,19	1276,29
458,39	1278,34
458,60	1283,36
458,80	1261,24
459,01	1292,17
459,21	1265,75
459,42	1292,06
459,62	1310,90
459,82	1302,61
460,03	1283,67
460,23	1303,63
460,44	1280,70
460,64	1279,88
460,85	1285,92
461,05	1286,64
461,25	1272,30
461,46	1291,45
461,66	1280,08
461,87	1294,93
462,07	1286,74
462,27	1305,89
462,48	1285,00
462,68	1264,52
462,89	1270,15
463,09	1395,59
463,29	1294,21
463,50	1298,31
463,70	1274,04
463,91	1305,89
464,11	1294,62
464,31	1289,50
464,52	1309,57
464,72	1339,99
464,93	1269,95
465,13	1298,92
465,33	1278,24
465,54	1275,58
465,74	1307,01
465,95	1286,94
466,15	1287,25
466,35	1297,80
466,56	1276,19
466,76	1306,19
466,96	1295,44
467,17	1330,67
467,37	1306,40
467,58	1302,61
467,78	1295,95
467,98	1281,41
468,19	1276,09
468,39	1292,17
468,59	1304,56
468,80	1320,84
469,00	1279,88
469,21	1295,24
469,41	1286,94
469,61	1292,68
469,82	1283,46
470,02	1309,16
470,22	1291,76
470,43	1285,82
470,63	1277,52
470,83	1275,27
471,04	1263,70
471,24	1291,24
471,45	1291,14
471,65	1321,35
471,85	1306,71
472,06	1286,94
472,26	1291,24
472,46	1284,18
472,67	1331,28
472,87	1291,24
473,07	1290,94
473,28	1283,26
473,48	1299,23
473,68	1310,70
473,89	1283,15
474,09	1305,48
474,29	1278,65
474,50	1295,14
474,70	1277,83
474,90	1332,51
475,11	1286,33
475,31	1304,97
475,51	1280,49
475,72	1303,84
475,92	1296,67
476,12	1292,47
476,33	1314,69
476,53	1288,79
476,73	1282,13
476,93	1300,97
477,14	1286,23
477,34	1308,14
477,54	1287,35
477,75	1280,59
477,95	1285,51
478,15	1292,17
478,36	1291,65
478,56	1289,50
478,76	1290,02
478,97	1290,53
479,17	1262,47
479,37	1273,63
479,57	1293,60
479,78	1304,97
479,98	1302,51
480,18	1305,38
480,39	1301,69
480,59	1288,38
480,79	1289,91
480,99	1276,29
481,20	1285,71
481,40	1321,04
481,60	1278,96
481,81	1296,77
482,01	1297,90
482,21	1309,78
482,41	1290,43
482,62	1290,02
482,82	1274,35
483,02	1327,19
483,23	1272,20
483,43	1294,83
483,63	1287,76
483,83	1299,54
484,04	1316,33
484,24	1305,07
484,44	1286,23
484,64	1298,82
484,85	1297,39
485,05	1284,08
485,25	1286,94
485,45	1277,83
485,66	1298,92
485,86	1274,55
486,06	1286,23
486,26	1289,81
486,47	1298,82
486,67	1277,83
486,87	1279,47
487,07	1304,76
487,28	1270,87
487,48	1288,79
487,68	1270,46
487,88	1290,53
488,09	1294,73
488,29	1297,18
488,49	1308,55
488,69	1303,43
488,90	1291,55
489,10	1294,52
489,30	1268,00
489,50	1288,58
489,71	1296,16
489,91	1295,44
490,11	1297,08
490,31	1289,61
490,52	1305,58
490,72	1290,32
490,92	1309,68
491,12	1299,54
491,32	1282,13
491,53	1297,08
491,73	1286,33
491,93	1264,93
492,13	1295,24
492,33	1283,36
492,54	1292,47
492,74	1305,99
492,94	1289,50
493,14	1305,89
493,35	1276,60
493,55	1294,21
493,75	1297,39
493,95	1310,50
494,15	1277,01
494,36	1290,83
494,56	1288,68
494,76	1300,56
494,96	1286,23
495,16	1287,56
495,37	1309,68
495,57	1277,11
495,77	1291,35
495,97	1303,53
496,17	1289,91
496,37	1305,27
496,58	1290,63
496,78	1291,86
496,98	1257,66
497,18	1304,15
497,38	1301,69
497,59	1321,76
497,79	1272,51
497,99	1312,95
498,19	1296,26
498,39	1316,13
498,59	1278,55
498,80	1329,95
499,00	1306,71
499,20	1286,84
499,40	1274,86
499,60	1296,77
499,80	1301,38
500,01	1284,38
500,21	1290,73
500,41	1294,42
500,61	1315,92
500,81	1305,38
501,01	1303,43
501,22	1289,91
501,42	1277,73
501,62	1301,18
501,82	1297,08
502,02	1307,22
502,22	1292,37
502,42	1308,55
502,63	1322,07
502,83	1297,39
503,03	1301,89
503,23	1284,38
503,43	1296,98
503,63	1311,83
503,83	1317,56
504,04	1303,43
504,24	1304,97
504,44	1289,61
504,64	1292,99
504,84	1328,41
505,04	1286,23
505,24	1271,28
505,44	1281,52
505,65	1301,69
505,85	1316,33
506,05	1279,78
506,25	1279,06
506,45	1306,50
506,65	1278,75
506,85	1263,90
507,05	1295,65
507,26	1301,59
507,46	1314,90
507,66	1277,83
507,86	1270,15
508,06	1290,22
508,26	1269,13
508,46	1309,06
508,66	1296,36
508,86	1307,12
509,06	1283,15
509,27	1311,31
509,47	1298,92
509,67	1270,76
509,87	1288,38
510,07	1321,04
510,27	1288,99
510,47	1320,12
510,67	1324,52
510,87	1318,58
511,07	1273,94
511,28	1296,88
511,48	1319,40
511,68	1304,04
511,88	1278,65
512,08	1296,47
512,28	1274,35
512,48	1318,48
512,68	1282,54
512,88	1288,48
513,08	1330,26
513,28	1329,85
513,48	1311,21
513,68	1301,79
513,89	1309,88
514,09	1306,91
514,29	1279,57
514,49	1308,34
514,69	1317,56
514,89	1299,03
515,09	1297,49
515,29	1306,91
515,49	1286,94
515,69	1308,65
515,89	1319,30
516,09	1297,08
516,29	1275,58
516,49	1275,99
516,69	1306,81
516,89	1299,85
517,09	1298,72
517,29	1307,42
517,50	1279,26
517,70	1284,69
517,90	1301,28
518,10	1296,77
518,30	1303,53
518,50	1312,95
518,70	1297,80
518,90	1307,63
519,10	1311,21
519,30	1274,04
519,50	1297,90
519,70	1310,90
519,90	1302,92
520,10	1303,94
520,30	1308,45
520,50	1276,60
520,70	1282,44
520,90	1340,50
521,10	1292,06
521,30	1298,51
521,50	1327,80
521,70	1316,84
521,90	1292,99
522,10	1322,48
522,30	1290,02
522,50	1292,68
522,70	1309,16
522,90	1311,42
523,10	1308,75
523,30	1327,08
523,50	1318,79
523,70	1301,48
523,90	1281,72
524,10	1304,04
524,30	1311,42
524,50	1300,97
524,70	1324,83
524,90	1309,06
525,10	1305,78
525,30	1299,13
525,50	1298,92
525,70	1279,78
525,90	1316,43
526,10	1329,75
526,30	1311,31
526,50	1323,60
526,70	1297,70
526,90	1312,65
527,10	1320,94
527,30	1323,40
527,50	1315,72
527,70	1310,39
527,90	1310,29
528,10	1330,26
528,30	1316,33
528,50	1316,23
528,70	1314,28
528,90	1318,48
529,10	1332,41
529,30	1317,05
529,50	1339,17
529,70	1336,81
529,90	1347,97
530,10	1371,83
530,29	1377,67
530,49	1369,89
530,69	1394,46
530,89	1396,31
531,09	1376,34
531,29	1398,35
531,49	1372,04
531,69	1404,19
531,89	1388,22
532,09	1399,68
532,29	1423,24
532,49	1446,69
532,69	1546,22
532,89	2206,69
533,09	4990,29
533,29	10960,52
533,49	20085,86
533,68	26830,75
533,88	34979,20
534,08	39214,51
534,28	38289,95
534,48	33274,99
534,68	27990,72
534,88	23847,16
535,08	20441,60
535,28	17468,15
535,48	15509,68
535,68	13886,35
535,88	12208,97
536,08	10528,91
536,27	9117,25
536,47	7977,35
536,67	7114,44
536,87	6173,19
537,07	5190,37
537,27	4377,02
537,47	3714,09
537,67	3363,79
537,87	3063,66
538,07	2766,81
538,27	2365,92
538,46	2061,28
538,66	1754,49
538,86	1585,74
539,06	1513,65
539,26	1442,59
539,46	1408,18
539,66	1387,91
539,86	1359,65
540,06	1359,13
540,25	1362,72
540,45	1338,55
540,65	1336,91
540,85	1330,77
541,05	1345,41
541,25	1342,44
541,45	1324,32
541,65	1337,22
541,85	1324,42
542,04	1332,61
542,24	1338,96
542,44	1331,08
542,64	1329,85
542,84	1314,08
543,04	1280,90
543,24	1325,04
543,43	1294,32
543,63	1353,40
543,83	1313,36
544,03	1314,18
544,23	1315,21
544,43	1319,92
544,63	1317,05
544,82	1302,41
545,02	1308,45
545,22	1329,13
545,42	1320,43
545,62	1315,31
545,82	1303,43
546,02	1286,12
546,21	1313,06
546,41	1295,65
546,61	1285,10
546,81	1298,21
547,01	1310,09
547,21	1315,00
547,40	1298,21
547,60	1318,99
547,80	1301,18
548,00	1277,42
548,20	1290,63
548,40	1325,45
548,59	1286,64
548,79	1323,19
548,99	1309,78
549,19	1291,45
549,39	1292,78
549,59	1309,27
549,78	1306,91
549,98	1283,77
550,18	1306,60
550,38	1317,36
550,58	1296,57
550,77	1311,42
550,97	1307,12
551,17	1314,59
551,37	1317,46
551,57	1282,13
551,76	1313,36
551,96	1302,51
552,16	1333,64
552,36	1317,66
552,56	1302,20
552,75	1305,17
552,95	1283,26
553,15	1328,93
553,35	1333,43
553,55	1282,95
553,74	1314,08
553,94	1291,86
554,14	1291,24
554,34	1294,52
554,54	1311,11
554,73	1289,30
554,93	1303,02
555,13	1312,54
555,33	1297,18
555,53	1291,65
555,72	1313,36
555,92	1333,64
556,12	1291,24
556,32	1305,58
556,51	1310,70
556,71	1291,86
556,91	1317,36
557,11	1318,38
557,30	1289,20
557,50	1308,55
557,70	1271,58
557,90	1295,03
558,10	1286,12
558,29	1308,55
558,49	1287,56
558,69	1301,79
558,89	1286,74
559,08	1316,54
559,28	1294,01
559,48	1282,34
559,68	1307,01
559,87	1313,67
560,07	1281,93
560,27	1309,98
560,47	1295,85
560,66	1286,84
560,86	1308,14
561,06	1296,67
561,25	1273,53
561,45	1304,86
561,65	1300,15
561,85	1295,14
562,04	1303,84
562,24	1297,39
562,44	1287,87
562,64	1321,76
562,83	1334,15
563,03	1339,27
563,23	1296,57
563,42	1313,77
563,62	1260,52
563,82	1288,07
564,02	1280,49
564,21	1317,77
564,41	1270,87
564,61	1302,10
564,80	1292,68
565,00	1317,56
565,20	1291,96
565,40	1314,80
565,59	1275,37
565,79	1309,06
565,99	1299,74
566,18	1299,74
566,38	1297,49
566,58	1301,18
566,78	1297,29
566,97	1306,81
567,17	1312,44
567,37	1288,68
567,56	1318,28
567,76	1317,97
567,96	1274,14
568,15	1284,38
568,35	1292,58
568,55	1312,75
568,74	1280,19
568,94	1299,03
569,14	1284,59
569,33	1295,95
569,53	1289,20
569,73	1291,96
569,92	1313,26
570,12	1301,79
570,32	1294,93
570,52	1281,82
570,71	1287,25
570,91	1310,60
571,11	1287,05
571,30	1298,00
571,50	1273,84
571,70	1318,89
571,89	1307,53
572,09	1307,83
572,28	1281,31
572,48	1272,91
572,68	1269,64
572,87	1293,91
573,07	1291,55
573,27	1330,16
573,46	1302,71
573,66	1284,69
573,86	1290,63
574,05	1288,99
574,25	1280,80
574,45	1280,80
574,64	1303,43
574,84	1310,09
575,04	1274,14
575,23	1309,68
575,43	1284,59
575,62	1298,00
575,82	1302,92
576,02	1266,46
576,21	1281,82
576,41	1276,40
576,61	1298,72
576,80	1283,77
577,00	1279,26
577,19	1270,56
577,39	1284,59
577,59	1301,59
577,78	1316,64
577,98	1287,46
578,18	1286,94
578,37	1307,63
578,57	1294,01
578,76	1316,23
578,96	1296,98
579,16	1293,39
579,35	1299,85
579,55	1275,99
579,74	1313,16
579,94	1268,31
580,14	1321,04
580,33	1305,58
580,53	1275,47
580,72	1301,38
580,92	1311,42
581,12	1274,96
581,31	1292,99
581,51	1306,19
581,70	1286,23
581,90	1292,88
582,10	1298,21
582,29	1297,70
582,49	1293,50
582,68	1294,83
582,88	1278,96
583,07	1346,54
583,27	1291,55
583,47	1316,74
583,66	1277,01
583,86	1290,94
584,05	1289,81
584,25	1269,64
584,44	1294,01
584,64	1306,60
584,84	1258,17
585,03	1300,05
585,23	1275,68
585,42	1275,88
585,62	1283,97
585,81	1287,35
586,01	1289,09
586,20	1300,56
586,40	1286,23
586,60	1320,74
586,79	1307,63
586,99	1313,46
587,18	1291,24
587,38	1274,55
587,57	1262,37
587,77	1277,32
587,96	1316,23
588,16	1291,14
588,35	1285,10
588,55	1317,15
588,75	1298,82
588,94	1289,20
589,14	1279,88
589,33	1283,67
589,53	1296,77
589,72	1270,56
589,92	1284,18
590,11	1296,16
590,31	1308,55
590,50	1326,47
590,70	1303,02
590,89	1318,58
591,09	1294,42
591,28	1325,04
591,48	1271,07
591,67	1315,82
591,87	1261,86
592,06	1299,54
592,26	1286,02
592,45	1301,69
592,65	1310,80
592,84	1279,67
593,04	1273,63
593,23	1295,95
593,43	1279,37
593,62	1328,01
593,82	1294,01
594,01	1281,11
594,21	1289,20
594,40	1293,39
594,60	1268,41
594,79	1300,26
594,99	1292,06
595,18	1276,70
595,38	1304,76
595,57	1298,10
595,77	1292,37
595,96	1301,59
596,16	1293,19
596,35	1284,79
596,55	1292,37
596,74	1307,12
596,94	1300,26
597,13	1305,38
597,33	1262,47
597,52	1308,96
597,72	1288,68
597,91	1311,93
598,11	1267,49
598,30	1289,61
598,50	1292,68
598,69	1302,51
598,88	1297,70
599,08	1309,88
599,27	1294,93
599,47	1282,44
599,66	1302,71
599,86	1291,24
600,05	1290,32
600,25	1308,04
600,44	1295,03
600,64	1314,28
600,83	1296,47
601,02	1313,26
601,22	1296,77
601,41	1314,90
601,61	1284,59
601,80	1297,18
602,00	1287,56
602,19	1291,96
602,38	1290,43
602,58	1295,24
602,77	1293,50
602,97	1259,40
603,16	1274,55
603,36	1289,09
603,55	1306,50
603,74	1297,90
603,94	1272,51
604,13	1305,68
604,33	1275,78
604,52	1275,58
604,72	1285,51
604,91	1300,36
605,10	1271,48
605,30	1291,86
605,49	1301,28
605,69	1308,24
605,88	1286,84
606,07	1310,70
606,27	1317,77
606,46	1309,16
606,66	1278,65
606,85	1270,36
607,04	1280,39
607,24	1289,40
607,43	1304,86
607,63	1287,97
607,82	1295,34
608,01	1266,46
608,21	1290,63
608,40	1300,56
608,60	1294,21
608,79	1295,85
608,98	1285,92
609,18	1307,63
609,37	1304,04
609,57	1300,97
609,76	1315,41
609,95	1279,16
610,15	1302,10
610,34	1311,11
610,53	1268,51
610,73	1290,43
610,92	1284,79
611,11	1291,55
611,31	1299,54
611,50	1277,63
611,70	1312,95
611,89	1276,29
612,08	1287,66
612,28	1291,04
612,47	1311,11
612,66	1287,66
612,86	1331,59
613,05	1290,43
613,24	1326,26
613,44	1293,09
613,63	1287,15
613,82	1306,71
614,02	1298,51
614,21	1301,59
614,41	1273,94
614,60	1302,30
614,79	1280,90
614,99	1317,87
615,18	1298,41
615,37	1306,60
615,57	1283,26
615,76	1294,83
615,95	1283,56
616,15	1292,06
616,34	1314,18
616,53	1334,46
616,73	1293,80
616,92	1283,67
617,11	1267,80
617,30	1291,24
617,50	1297,18
617,69	1322,68
617,88	1324,93
618,08	1326,16
618,27	1291,65
618,46	1278,14
618,66	1281,41
618,85	1277,01
619,04	1292,27
619,24	1323,09
619,43	1298,41
619,62	1295,85
619,82	1306,30
620,01	1272,81
620,20	1259,19
620,39	1281,52
620,59	1297,90
620,78	1283,77
620,97	1319,81
621,17	1297,49
621,36	1276,29
621,55	1290,43
621,74	1298,00
621,94	1267,90
622,13	1336,50
622,32	1289,91
622,52	1278,96
622,71	1294,52
622,90	1315,51
623,09	1286,23
623,29	1268,00
623,48	1297,70
623,67	1270,05
623,86	1317,15
624,06	1280,80
624,25	1283,56
624,44	1313,36
624,64	1305,68
624,83	1275,99
625,02	1314,59
625,21	1317,97
625,41	1271,48
625,60	1308,34
625,79	1264,31
625,98	1280,70
626,18	1282,95
626,37	1312,65
626,56	1289,20
626,75	1289,40
626,95	1297,59
627,14	1283,15
627,33	1294,01
627,52	1270,87
627,72	1289,71
627,91	1332,10
628,10	1289,81
628,29	1295,65
628,49	1299,95
628,68	1312,75
628,87	1306,50
629,06	1302,30
629,25	1289,30
629,45	1305,27
629,64	1333,43
629,83	1296,67
630,02	1282,03
630,22	1298,92
630,41	1277,01
630,60	1289,09
630,79	1293,70
630,98	1284,59
631,18	1272,10
631,37	1258,48
631,56	1287,76
631,75	1300,05
631,94	1277,01
632,14	1272,91
632,33	1279,78
632,52	1262,57
632,71	1455,08
632,90	1286,94
633,10	1297,18
633,29	1276,50
633,48	1300,87
633,67	1269,43
633,86	1299,03
634,06	1276,09
634,25	1304,76
634,44	1296,06
634,63	1300,56
634,82	1276,70
635,02	1296,16
635,21	1257,96
635,40	1276,09
635,59	1275,88
635,78	1311,72
635,97	1269,02
636,17	1296,77
636,36	1303,53
636,55	1288,27
636,74	1284,28
636,93	1292,78
637,12	1327,29
637,32	1285,00
637,51	1268,00
637,70	1339,68
637,89	1270,46
638,08	1285,10
638,27	1322,68
638,47	1288,99
638,66	1292,06
638,85	1281,62
639,04	1286,64
639,23	1292,27
639,42	1300,46
639,62	1320,74
639,81	1303,84
640,00	1319,71
640,19	1296,57
640,38	1304,04
640,57	1283,46
640,76	1309,37
640,95	1286,74
641,15	1260,12
641,34	1304,25
641,53	1300,36
641,72	1298,31
641,91	1319,71
642,10	1268,82
642,29	1309,06
642,49	1272,71
642,68	1277,32
642,87	1273,73
643,06	1294,62
643,25	1301,38
643,44	1293,39
643,63	1281,62
643,82	1277,63
644,01	1283,46
644,21	1295,55
644,40	1300,15
644,59	1296,77
644,78	1291,35
644,97	1340,60
645,16	1291,35
645,35	1282,13
645,54	1297,39
645,73	1301,89
645,92	1294,52
646,12	1273,84
646,31	1282,95
646,50	1296,47
646,69	1303,43
646,88	1286,43
647,07	1303,94
647,26	1282,64
647,45	1270,36
647,64	1289,61
647,83	1276,29
648,02	1318,18
648,22	1294,42
648,41	1274,96
648,60	1298,72
648,79	1294,52
648,98	1317,87
649,17	1285,41
649,36	1266,67
649,55	1299,95
649,74	1299,03
649,93	1285,61
650,12	1291,86
650,31	1291,86
650,50	1296,47
650,69	1313,46
650,88	1314,69
651,08	1296,67
651,27	1302,92
651,46	1297,18
651,65	1269,43
651,84	1288,07
652,03	1285,71
652,22	1290,12
652,41	1263,90
652,60	1331,28
652,79	1309,47
652,98	1296,77
653,17	1277,42
653,36	1313,06
653,55	1288,58
653,74	1308,75
653,93	1286,23
654,12	1290,32
654,31	1273,32
654,50	1296,77
654,69	1311,62
654,88	1304,15
655,07	1268,51
655,26	1296,36
655,45	1280,08
655,64	1276,91
655,83	1292,27
656,02	1302,51
656,21	1282,13
656,40	1273,02
656,59	1290,53
656,78	1281,21
656,97	1283,36
657,17	1303,02
657,36	1290,73
657,55	1332,20
657,74	1290,02
657,93	1293,91
658,12	1297,39
658,31	1292,17
658,50	1282,23
658,69	1279,57
658,87	1295,44
659,06	1290,94
659,25	1279,98
659,44	1293,39
659,63	1298,92
659,82	1300,66
660,01	1284,28
660,20	1285,61
660,39	1303,22
660,58	1282,44
660,77	1277,83
660,96	1296,57
661,15	1285,92
661,34	1291,14
661,53	1288,48
661,72	1289,71
661,91	1269,74
662,10	1289,50
662,29	1262,16
662,48	1274,25
662,67	1278,55
662,86	1272,30
663,05	1274,14
663,24	1292,27
663,43	1272,91
663,62	1318,89
663,81	1267,39
664,00	1320,33
664,19	1272,20
664,38	1292,78
664,57	1281,93
664,76	1302,61
664,94	1264,72
665,13	1278,24
665,32	1268,92
665,51	1281,21
665,70	1269,84
665,89	1281,72
666,08	1282,44
666,27	1274,45
666,46	1291,24
666,65	1288,07
666,84	1263,90
667,03	1270,87
667,22	1271,17
667,41	1297,70
667,60	1278,85
667,78	1302,10
667,97	1295,95
668,16	1304,97
668,35	1296,98
668,54	1291,35
668,73	1287,15
668,92	1288,07
669,11	1266,98
669,30	1283,77
669,49	1281,41
669,68	1326,26
669,86	1267,59
670,05	1288,79
670,24	1263,08
670,43	1307,63
670,62	1290,73
670,81	1288,79
671,00	1273,94
671,19	1317,97
671,38	1286,23
671,57	1286,84
671,75	1266,16
671,94	1297,59
672,13	1284,79
672,32	1274,25
672,51	1284,79
672,70	1302,51
672,89	1282,13
673,08	1283,97
673,26	1269,54
673,45	1283,05
673,64	1287,25
673,83	1288,58
674,02	1266,67
674,21	1314,18
674,40	1290,73
674,59	1305,68
674,77	1305,89
674,96	1310,09
675,15	1319,71
675,34	1286,33
675,53	1313,46
675,72	1284,08
675,91	1301,59
676,09	1318,38
676,28	1326,57
676,47	1294,93
676,66	1266,26
676,85	1322,17
677,04	1287,35
677,22	1301,89
677,41	1296,16
677,60	1289,50
677,79	1288,07
677,98	1296,88
678,17	1271,28
678,36	1304,04
678,54	1265,24
678,73	1305,07
678,92	1279,47
679,11	1294,62
679,30	1291,24
679,48	1288,07
679,67	1285,31
679,86	1278,44
680,05	1305,78
680,24	1289,40
680,43	1265,44
680,61	1286,94
680,80	1274,66
680,99	1290,43
681,18	1288,17
681,37	1294,93
681,55	1309,47
681,74	1300,15
681,93	1277,93
682,12	1279,16
682,31	1277,22
682,49	1291,35
682,68	1300,66
682,87	1281,21
683,06	1257,25
683,25	1293,60
683,43	1307,32
683,62	1289,81
683,81	1315,51
684,00	1326,57
684,19	1283,36
684,37	1284,90
684,56	1277,52
684,75	1310,70
684,94	1282,44
685,12	1312,03
685,31	1292,88
685,50	1294,73
685,69	1289,91
685,88	1298,62
686,06	1299,85
686,25	1280,70
686,44	1305,17
686,63	1293,91
686,81	1304,76
687,00	1293,80
687,19	1283,97
687,38	1318,69
687,56	1272,81
687,75	1300,77
687,94	1294,73
688,13	1284,49
688,31	1281,00
688,50	1279,16
688,69	1298,00
688,88	1302,30
689,06	1285,61
689,25	1283,26
689,44	1280,59
689,63	1301,48
689,81	1264,42
690,00	1288,17
690,19	1295,85
690,38	1289,09
690,56	1286,02
690,75	1321,55
690,94	1287,46
691,13	1281,93
691,31	1287,05
691,50	1276,40
691,69	1306,40
691,87	1277,73
692,06	1297,08
692,25	1289,91
692,44	1278,65
692,62	1294,62
692,81	1329,75
693,00	1287,35
693,18	1261,14
693,37	1304,66
693,56	1269,13
693,75	1268,41
693,93	1299,85
694,12	1319,51
694,31	1275,99
694,49	1268,82
694,68	1266,46
694,87	1290,73
695,05	1290,43
695,24	1271,79
695,43	1276,60
695,62	1257,04
695,80	1260,83
695,99	1296,77
696,18	1290,12
696,36	1305,27
696,55	1276,29
696,74	1264,01
696,92	1302,71
697,11	1315,10
697,30	1314,49
697,48	1283,67
697,67	1284,90
697,86	1292,88
698,04	1276,09
698,23	1270,87
698,42	1288,27
698,60	1281,52
698,79	1292,88
698,98	1294,52
699,16	1280,39
699,35	1288,17
699,54	1285,31
699,72	1290,32
699,91	1324,73
700,10	1279,78
700,28	1295,65
700,47	1327,19
700,66	1295,44
700,84	1286,02
701,03	1274,86
701,21	1414,84
701,40	1275,37
701,59	1293,29
701,77	1276,81
701,96	1284,69
702,15	1277,01
702,33	1288,48
702,52	1257,76
702,71	1310,90
702,89	1273,84
703,08	1293,91
703,26	1300,46
703,45	1314,18
703,64	1292,37
703,82	1318,28
704,01	1296,47
704,20	1302,00
704,38	1288,68
704,57	1280,08
704,75	1269,23
704,94	1279,16
705,13	1285,00
705,31	1286,12
705,50	1286,43
705,68	1307,22
705,87	1302,00
706,06	1296,06
706,24	1287,87
706,43	1272,81
706,61	1288,68
706,80	1283,46
706,99	1299,33
707,17	1321,66
707,36	1292,17
707,54	1290,73
707,73	1276,50
707,92	1296,36
708,10	1270,56
708,29	1272,30
708,47	1280,08
708,66	1294,32
708,84	1277,63
709,03	1300,56
709,22	1285,82
709,40	1307,63
709,59	1287,97
709,77	1290,32
709,96	1296,26
710,14	1284,28
710,33	1287,87
710,52	1297,29
710,70	1302,51
710,89	1291,35
711,07	1290,32
711,26	1292,37
711,44	1305,07
711,63	1302,20
711,81	1296,16
712,00	1277,73
712,19	1288,48
712,37	1313,98
712,56	1298,10
712,74	1287,15
712,93	1290,53
713,11	1290,63
713,30	1302,51
713,48	1285,61
713,67	1286,23
713,85	1289,91
714,04	1284,90
714,22	1305,38
714,41	1287,46
714,59	1286,74
714,78	1307,73
714,97	1308,86
715,15	1280,90
715,34	1318,07
715,52	1278,65
715,71	1290,83
715,89	1288,38
716,08	1298,62
716,26	1266,67
716,45	1298,00
716,63	1274,76
716,82	1286,74
717,00	1256,02
717,19	1295,85
717,37	1296,06
717,56	1288,89
717,74	1294,01
717,93	1309,68
718,11	1294,83
718,30	1260,12
718,48	1297,39
718,67	1321,45
718,85	1282,85
719,04	1291,65
719,22	1263,08
719,41	1305,68
719,59	1314,80
719,78	1283,77
719,96	1270,15
720,15	1298,62
720,33	1294,42
720,52	1295,24
720,70	1266,16
720,88	1309,27
721,07	1278,65
721,25	1295,95
721,44	1274,86
721,62	1298,62
721,81	1260,52
721,99	1265,75
722,18	1275,68
722,36	1298,51
722,55	1284,08
722,73	1287,35
722,92	1296,57
723,10	1292,88
723,28	1282,75
723,47	1307,94
723,65	1290,53
723,84	1291,86
724,02	1283,15
724,21	1304,45
724,39	1278,75
724,58	1276,50
724,76	1297,49
724,94	1276,60
725,13	1291,35
725,31	1290,12
725,50	1302,92
725,68	1296,67
725,87	1293,50
726,05	1305,99
726,23	1289,09
726,42	1279,78
726,60	1292,88
726,79	1272,10
726,97	1289,61
727,16	1317,05
727,34	1300,46
727,52	1278,85
727,71	1326,37
727,89	1271,07
728,08	1268,92
728,26	1304,66
728,44	1284,69
728,63	1312,03
728,81	1284,79
729,00	1295,44
729,18	1288,27
729,36	1288,07
729,55	1300,36
729,73	1306,91
729,92	1284,59
730,10	1268,51
730,28	1272,30
730,47	1280,39
730,65	1287,97
730,84	1317,46
731,02	1265,34
731,20	1293,91
731,39	1278,85
731,57	1316,95
731,75	1296,26
731,94	1289,61
732,12	1300,77
732,31	1279,26
732,49	1258,17
732,67	1290,22
732,86	1268,61
733,04	1294,52
733,22	1276,50
733,41	1273,02
733,59	1274,55
733,78	1288,79
733,96	1287,05
734,14	1273,32
734,33	1271,58
734,51	1279,16
734,69	1298,72
734,88	1283,77
735,06	1281,82
735,24	1291,65
735,43	1309,27
735,61	1262,78
735,79	1303,63
735,98	1280,70
736,16	1306,91
736,34	1294,42
736,53	1291,35
736,71	1307,83
736,89	1282,44
737,08	1290,53
737,26	1291,04
737,44	1299,54
737,63	1279,67
737,81	1272,40
737,99	1303,84
738,18	1294,11
738,36	1320,02
738,54	1284,18
738,73	1284,79
738,91	1300,46
739,09	1294,42
739,28	1274,35
739,46	1288,38
739,64	1292,27
739,82	1302,00
740,01	1279,67
740,19	1330,77
740,37	1287,35
740,56	1286,53
740,74	1288,89
740,92	1306,60
741,11	1259,09
741,29	1290,32
741,47	1324,73
741,65	1267,18
741,84	1289,61
742,02	1314,69
742,20	1277,63
742,39	1274,66
742,57	1290,22
742,75	1269,33
742,93	1310,50
743,12	1304,15
743,30	1287,35
743,48	1280,08
743,67	1291,96
743,85	1277,42
744,03	1314,39
744,21	1270,97
744,40	1284,18
744,58	1289,61
744,76	1306,19
744,94	1282,13
745,13	1280,29
745,31	1275,37
745,49	1270,15
745,67	1273,43
745,86	1303,22
746,04	1284,08
746,22	1294,83
746,40	1277,22
746,59	1267,90
746,77	1288,89
746,95	1313,98
747,13	1276,09
747,32	1301,48
747,50	1282,85
747,68	1289,30
747,86	1282,13
748,05	1292,68
748,23	1276,29
748,41	1287,66
748,59	1278,14
748,77	1278,03
748,96	1282,95
749,14	1262,06
749,32	1326,47
749,50	1312,75
749,69	1280,80
749,87	1294,21
750,05	1299,44
750,23	1279,67
750,41	1280,49
750,60	1297,18
750,78	1278,44
750,96	1303,84
751,14	1290,83
751,32	1301,38
751,51	1258,17
751,69	1274,66
751,87	1253,25
752,05	1304,25
752,23	1282,03
752,42	1276,19
752,60	1301,59
752,78	1290,02
752,96	1272,81
753,14	1288,27
753,33	1267,08
753,51	1274,45
753,69	1280,19
753,87	1276,60
754,05	1307,63
754,23	1300,26
754,42	1268,92
754,60	1289,71
754,78	1303,22
754,96	1273,73
755,14	1275,27
755,32	1316,64
755,51	1266,67
755,69	1286,74
755,87	1282,75
756,05	1270,56
756,23	1282,13
756,41	1291,65
756,60	1283,46
756,78	1305,89
756,96	1277,52
757,14	1294,93
757,32	1273,02
757,50	1295,44
757,68	1291,14
757,87	1281,41
758,05	1288,99
758,23	1280,49
758,41	1314,90
758,59	1303,22
758,77	1305,89
758,95	1302,30
759,14	1296,47
759,32	1324,01
759,50	1262,68
759,68	1278,24
759,86	1268,82
760,04	1278,55
760,22	1274,45
760,40	1344,80
760,59	1286,02
760,77	1322,07
760,95	1283,97
761,13	1292,78
761,31	1298,21
761,49	1282,23
761,67	1290,02
761,85	1284,59
762,03	1289,71
762,22	1297,80
762,40	1298,82
762,58	1294,62
762,76	1289,61
762,94	1295,14
763,12	1291,24
763,30	1316,33
763,48	1287,76
763,66	1283,46
763,84	1260,42
764,02	1277,22
764,21	1278,44
764,39	1326,88
764,57	1297,90
764,75	1295,14
764,93	1285,00
765,11	1290,12
765,29	1290,32
765,47	1286,84
765,65	1292,88
765,83	1297,39
766,01	1287,05
766,19	1291,96
766,37	1329,03
766,56	1302,71
766,74	1275,88
766,92	1275,99
767,10	1273,12
767,28	1283,05
767,46	1296,16
767,64	1287,46
767,82	1284,79
768,00	1283,05
768,18	1284,59
768,36	1312,34
768,54	1310,09
768,72	1301,59
768,90	1278,44
769,08	1276,09
769,26	1305,38
769,44	1305,38
769,62	1281,72
769,80	1294,83
769,98	1307,42
770,16	1285,10
770,34	1279,16
770,52	1287,97
770,71	1298,51
770,89	1280,80
771,07	1308,86
771,25	1284,18
771,43	1301,48
771,61	1302,71
771,79	1286,94
771,97	1283,87
772,15	1295,14
772,33	1295,24
772,51	1308,75
772,69	1268,92
772,87	1294,01
773,05	1298,92
773,23	1290,43
773,41	1320,33
773,59	1286,84
773,77	1291,04
773,95	1301,89
774,13	1317,36
774,31	1300,77
774,49	1293,80
774,67	1278,96
774,85	1296,06
775,03	1293,39
775,21	1295,34
775,39	1266,87
775,57	1300,36
775,75	1314,28
775,93	1286,94
776,10	1269,95
776,28	1296,26
776,46	1283,36
776,64	1282,95
776,82	1265,64
777,00	1645,54
777,18	1270,66
777,36	1310,80
777,54	1276,91
777,72	1283,67
777,90	1305,07
778,08	1291,76
778,26	1264,83
778,44	1278,96
778,62	1272,30
778,80	1330,77
778,98	1305,48
779,16	1269,23
779,34	1320,74
779,52	1281,21
779,70	1294,52
779,88	1285,41
780,05	1286,94
780,23	1285,00
780,41	1285,71
780,59	1290,63
780,77	1290,02
780,95	1299,54
781,13	1300,77
781,31	1292,47
781,49	1298,10
781,67	1300,46
781,85	1276,50
782,03	1284,79
782,21	1292,78
782,39	1294,62
782,56	1305,27
782,74	1302,51
782,92	1276,70
783,10	1328,62
783,28	1275,17
783,46	1281,21
783,64	1325,96
783,82	1289,91
784,00	1321,45
784,18	1299,23
784,35	1270,15
784,53	1305,78
784,71	1276,60
784,89	1275,17
785,07	1283,05
785,25	1306,71
785,43	1315,10
785,61	1276,09
785,79	1307,12
785,96	1305,38
786,14	1287,05
786,32	1304,35
786,50	1307,63
786,68	1269,23
786,86	1288,27
787,04	1299,74
787,22	1284,08
787,39	1276,19
787,57	1294,62
787,75	1298,92
787,93	1296,57
788,11	1271,28
788,29	1294,52
788,47	1297,90
788,65	1265,13
788,82	1284,49
789,00	1282,44
789,18	1304,56
789,36	1287,87
789,54	1280,39
789,72	1274,35
789,89	1294,73
790,07	1325,96
790,25	1288,79
790,43	1292,47
790,61	1312,75
790,79	1284,28
790,96	1289,40
791,14	1302,61
791,32	1276,50
791,50	1294,42
791,68	1309,88
791,86	1270,87
792,03	1289,81
792,21	1298,41
792,39	1292,06
792,57	1270,66
792,75	1272,30
792,93	1288,99
793,10	1279,98
793,28	1289,91
793,46	1282,85
793,64	1295,03
793,82	1312,03
793,99	1307,73
794,17	1268,72
794,35	1286,23
794,53	1304,56
794,71	1252,84
794,88	1271,07
795,06	1292,88
795,24	1275,78
795,42	1287,87
795,60	1296,88
795,77	1273,73
795,95	1285,71
796,13	1282,75
796,31	1288,99
796,49	1310,80
796,66	1299,44
796,84	1288,68
797,02	1302,30
797,20	1290,53
797,37	1297,29
797,55	1271,99
797,73	1280,49
797,91	1265,85
798,08	1299,13
798,26	1305,17
798,44	1288,68
798,62	1292,27
798,80	1294,32
798,97	1276,70
799,15	1293,60
799,33	1308,24
799,51	1325,55
799,68	1298,82
799,86	1302,82
800,04	1289,61
800,22	1309,47
800,39	1274,55
800,57	1320,22
800,75	1292,47
800,93	1296,06
801,10	1293,39
801,28	1311,93
801,46	1267,49
801,63	1292,27
801,81	1301,38
801,99	1279,37
802,17	1282,34
802,34	1324,01
802,52	1295,75
802,70	1311,01
802,88	1301,07
803,05	1304,76
803,23	1286,84
803,41	1288,48
803,58	1287,46
803,76	1294,52
803,94	1308,04
804,12	1293,09
804,29	1287,35
804,47	1304,56
804,65	1308,86
804,82	1292,99
805,00	1288,27
805,18	1288,17
805,35	1287,56
805,53	1319,30
805,71	1285,92
805,89	1308,55
806,06	1294,73
806,24	1273,53
806,42	1274,66
806,59	1278,03
806,77	1290,43
806,95	1277,52
807,12	1285,51
807,30	1310,19
807,48	1277,52
807,65	1277,83
807,83	1299,13
808,01	1287,66
808,18	1284,08
808,36	1314,28
808,54	1273,63
808,71	1298,21
808,89	1295,03
809,07	1306,30
809,24	1288,68
809,42	1336,81
809,60	1268,31
809,77	1290,32
809,95	1297,29
810,13	1305,89
810,30	1289,71
810,48	1314,28
810,66	1297,80
810,83	1302,00
811,01	1288,48
811,18	1299,95
811,36	1275,27
811,54	1290,22
811,71	1308,24
811,89	1297,90
812,07	1290,94
812,24	1317,05
812,42	1269,74
812,59	1297,59
812,77	1287,66
812,95	1299,44
813,12	1298,41
813,30	1286,53
813,48	1297,39
813,65	1281,72
813,83	1298,10
814,00	1304,76
814,18	1302,20
814,36	1299,33
814,53	1303,84
814,71	1295,34
814,88	1330,16
815,06	1285,51
815,24	1315,72
815,41	1261,65
815,59	1294,83
815,76	1293,39
815,94	1304,35
816,12	1291,55
816,29	1332,51
816,47	1300,46
816,64	1320,43
816,82	1289,71
817,00	1306,30
817,17	1300,87
817,35	1322,27
817,52	1286,43
817,70	1294,32
817,87	1305,48
818,05	1288,48
818,23	1292,78
818,40	1305,78
818,58	1304,35
818,75	1275,07
818,93	1273,12
819,10	1292,27
819,28	1291,04
819,46	1286,23
819,63	1276,70
819,81	1311,83
819,98	1271,79
820,16	1302,92
820,33	1269,23
820,51	1322,48
820,68	1291,96
820,86	1292,68
821,03	1311,42
821,21	1295,75
821,39	1323,40
821,56	1293,91
821,74	1285,00
821,91	1280,19
822,09	1286,74
822,26	1285,82
822,44	1266,77
822,61	1274,35
822,79	1296,26
822,96	1273,94
823,14	1273,32
823,31	1282,23
823,49	1304,86
823,66	1284,08
823,84	1301,89
824,01	1277,52
824,19	1273,53
824,36	1290,53
824,54	1290,94
824,71	1315,82
824,89	1290,22
825,06	1309,37
825,24	1301,79
825,41	1293,70
825,59	1298,51
825,76	1304,45
825,94	1290,63
826,11	1305,27
826,29	1282,64
826,46	1285,20
826,64	1310,50
826,81	1307,22
826,99	1287,05
827,16	1275,88
827,34	1275,99
827,51	1283,56
827,69	1322,07
827,86	1294,01
828,04	1289,50
828,21	1292,68
828,39	1301,18
828,56	1288,89
828,74	1316,84
828,91	1279,06
829,09	1345,41
829,26	1283,56
829,43	1309,37
829,61	1285,92
829,78	1279,57
829,96	1288,79
830,13	1289,30
830,31	1294,62
830,48	1306,40
830,66	1280,49
830,83	1284,90
831,01	1293,70
831,18	1284,49
831,35	1288,68
831,53	1322,58
831,70	1309,88
831,88	1335,38
832,05	1302,00
832,23	1279,16
832,40	1296,67
832,57	1314,08
832,75	1289,81
832,92	1302,92
833,10	1291,55
833,27	1294,93
833,45	1294,32
833,62	1304,04
833,79	1293,50
833,97	1280,19
834,14	1288,79
834,32	1299,85
834,49	1276,91
834,66	1279,47
834,84	1269,43
835,01	1303,63
835,19	1263,39
835,36	1289,71
835,53	1316,02
835,71	1287,97
835,88	1308,96
836,06	1310,70
836,23	1328,62
836,40	1291,96
836,58	1275,99
836,75	1296,06
836,93	1299,23
837,10	1285,10
837,27	1298,92
837,45	1285,92
837,62	1278,96
837,79	1282,54
837,97	1297,59
838,14	1284,69
838,32	1286,53
838,49	1284,28
838,66	1299,44
838,84	1317,25
839,01	1315,51
839,18	1305,99
839,36	1275,17
839,53	1280,39
839,70	1290,32
839,88	1288,48
840,05	1291,76
840,23	1288,58
840,40	1275,99
840,57	1283,67
840,75	1303,74
840,92	1330,77
841,09	1296,36
841,27	1301,28
841,44	1301,89
841,61	1299,44
841,79	1289,40
841,96	1295,34
842,13	1273,84
842,31	1298,00
842,48	1295,14
842,65	1289,61
842,83	1287,35
843,00	1308,96
843,17	1288,58
843,35	1300,05
843,52	1284,38
843,69	1287,46
843,86	1285,00
844,04	1280,49
844,21	1287,05
844,38	1304,04
844,56	1296,67
844,73	1311,11
844,90	1288,07
845,08	1293,19
845,25	1284,38
845,42	1326,06
845,60	1298,00
845,77	1285,41
845,94	1302,61
846,11	1313,16
846,29	1293,70
846,46	1304,15
846,63	1303,53
846,81	1314,39
846,98	1302,92
847,15	1285,82
847,32	1296,06
847,50	1284,90
847,67	1283,97
847,84	1299,03
848,01	1319,81
848,19	1307,32
848,36	1307,53
848,53	1288,48
848,71	1328,11
848,88	1292,78
849,05	1272,30
849,22	1286,02
849,40	1282,64
849,57	1313,06
849,74	1274,55
849,91	1297,59
850,09	1279,57
850,26	1284,08
850,43	1282,75
850,60	1301,59
850,78	1295,44
850,95	1287,56
851,12	1266,98
851,29	1298,92
851,47	1311,42
851,64	1303,02
851,81	1290,32
851,98	1281,21
852,15	1301,89
852,33	1257,86
852,50	1296,67
852,67	1315,72
852,84	1282,23
853,02	1298,41
853,19	1319,40
853,36	1290,53
853,53	1269,95
853,70	1324,73
853,88	1294,93
854,05	1320,22
854,22	1285,00
854,39	1310,29
854,56	1307,83
854,74	1284,18
854,91	1299,95
855,08	1272,20
855,25	1304,15
855,42	1293,80
855,60	1303,63
855,77	1314,39
855,94	1309,98
856,11	1291,55
856,28	1284,18
856,46	1304,66
856,63	1289,50
856,80	1294,62
856,97	1308,14
857,14	1303,22
857,31	1290,83
857,49	1314,28
857,66	1312,95
857,83	1285,41
858,00	1278,75
858,17	1302,20
858,34	1295,85
858,52	1284,59
858,69	1294,73
858,86	1313,26
859,03	1278,65
859,20	1302,00
859,37	1281,82
859,55	1282,03
859,72	1305,78
859,89	1295,44
860,06	1293,70
860,23	1304,76
860,40	1281,82
860,57	1309,37
860,75	1273,84
860,92	1307,53
861,09	1291,65
861,26	1297,59
861,43	1284,18
861,60	1291,86
861,77	1265,34
861,95	1287,56
862,12	1302,10
862,29	1279,16
862,46	1302,61
862,63	1308,04
862,80	1300,77
862,97	1325,75
863,14	1272,40
863,31	1315,72
863,49	1296,06
863,66	1305,99
863,83	1309,47
864,00	1320,63
864,17	1275,68
864,34	1305,27
864,51	1285,51
864,68	1311,83
864,85	1283,15
865,02	1276,29
865,20	1305,38
865,37	1290,12
865,54	1310,80
865,71	1310,90
865,88	1278,34
866,05	1288,07
866,22	1304,45
866,39	1294,62
866,56	1270,87
866,73	1282,34
866,90	1309,27
867,07	1300,87
867,25	1264,42
867,42	1309,37
867,59	1286,33
867,76	1334,25
867,93	1288,89
868,10	1307,42
868,27	1260,73
868,44	1310,29
868,61	1284,79
868,78	1313,98
868,95	1284,38
869,12	1315,21
869,29	1289,20
869,46	1306,91
869,63	1304,45
869,80	1277,63
869,97	1322,37
870,14	1303,53
870,32	1289,40
870,49	1295,44
870,66	1309,47
870,83	1298,62
871,00	1286,43
871,17	1295,34
871,34	1291,76
871,51	1305,48
871,68	1278,75
871,85	1313,98
872,02	1313,36
872,19	1288,99
872,36	1273,84
872,53	1303,63
872,70	1291,65
872,87	1275,07
873,04	1272,91
873,21	1266,36
873,38	1297,90
873,55	1328,11
873,72	1292,68
873,89	1297,90
874,06	1262,16
874,23	1271,69
874,40	1291,04
874,57	1303,22
874,74	1313,67
874,91	1279,57
875,08	1285,82
875,25	1316,64
875,42	1303,22
875,59	1291,45
875,76	1291,04
875,93	1299,13
876,10	1316,74
876,27	1289,40
876,44	1321,55
876,61	1292,27
876,78	1292,58
876,95	1291,14
877,12	1290,73
877,29	1314,08
877,46	1280,90
877,62	1295,85
877,79	1277,32
877,96	1304,45
878,13	1267,80
878,30	1302,20
878,47	1311,01
878,64	1290,94
878,81	1280,80
878,98	1290,43
879,15	1303,94
879,32	1321,66
879,49	1302,71
879,66	1307,53
879,83	1277,32
880,00	1339,27
880,17	1270,05
880,34	1301,89
880,51	1282,85
880,67	1316,23
880,84	1269,54
881,01	1300,26
881,18	1305,58
881,35	1308,14
881,52	1321,25
881,69	1298,10
881,86	1310,50
882,03	1309,16
882,20	1310,80
882,37	1306,40
882,54	1299,74
882,70	1312,44
882,87	1295,95
883,04	1303,84
883,21	1306,71
883,38	1279,16
883,55	1299,74
883,72	1283,56
883,89	1292,06
884,06	1267,18
884,23	1275,37
884,39	1277,32
884,56	1300,56
884,73	1317,25
884,90	1298,72
885,07	1311,31
885,24	1285,20
885,41	1319,92
885,58	1286,02
885,74	1279,67
885,91	1311,42
886,08	1303,74
886,25	1283,46
886,42	1296,26
886,59	1305,07
886,76	1300,77
886,93	1281,62
887,09	1310,80
887,26	1332,92
887,43	1305,99
887,60	1294,52
887,77	1306,50
887,94	1307,63
888,10	1341,42
888,27	1319,71
888,44	1308,65
888,61	1268,61
888,78	1264,72
888,95	1303,84
889,12	1294,11
889,28	1297,80
889,45	1296,88
889,62	1278,75
889,79	1299,54
889,96	1309,57
890,13	1290,22
890,29	1287,97
890,46	1313,26
890,63	1286,23
890,80	1289,71
890,97	1288,07
891,13	1280,19
891,30	1309,27
891,47	1310,70
891,64	1279,88
891,81	1292,58
891,98	1288,17
892,14	1311,01
892,31	1285,10
892,48	1275,07
892,65	1288,79
892,82	1296,57
892,98	1270,76
893,15	1305,48
893,32	1298,21
>>>>>End Processed Spectral Data<<<<<
