SpectraSuite Datei
++++++++++++++++++++++++++++++++++++
Datum: Mon Mar 09 10:05:03 CET 2020
Benutzer: Lichtquellen1
Dark-Spektrum vorhanden: Ja
Referenz-Spektrum vorhanden: Nein
Zahl der probierten Teilspektren: 1
Spektrometer: USB4F05832
Integrationszeit (usec): 50000 (USB4F05832)
Spektren Durchschnitt berechnet: 20 (USB4F05832)
Boxcar Glättung: 0 (USB4F05832)
Dunkelstromkorrektur: Nein (USB4F05832)
Puls/Lampe aktiviert: Nein (USB4F05832)
Correct for Detector Non-linearity: Nein (USB4F05832)
Streulichtkorrektur: Nein (USB4F05832)
Anzahl Pixel in verarbeitetem Spektrum: 3648
>>>>>Begin Processed Spectral Data<<<<<
177,54	1227,14
177,75	1227,14
177,97	1227,14
178,19	1216,49
178,41	1227,55
178,63	1279,47
178,85	1251,31
179,07	1249,77
179,29	1261,96
179,51	1224,17
179,73	1263,80
179,95	1268,72
180,17	1266,16
180,39	1287,76
180,61	1266,77
180,83	1278,03
181,05	1263,08
181,27	1282,95
181,49	1279,47
181,71	1305,78
181,92	1347,97
182,14	1301,79
182,36	1284,69
182,58	1330,36
182,80	1305,78
183,02	1323,09
183,24	1323,60
183,46	1297,39
183,68	1296,77
183,90	1317,56
184,12	1297,70
184,34	1326,57
184,56	1294,73
184,78	1284,49
185,00	1311,52
185,21	1335,28
185,43	1299,23
185,65	1308,86
185,87	1300,66
186,09	1325,96
186,31	1321,35
186,53	1294,62
186,75	1309,57
186,97	1330,67
187,19	1351,56
187,41	1282,75
187,63	1318,79
187,84	1286,12
188,06	1314,49
188,28	1289,71
188,50	1324,22
188,72	1349,20
188,94	1344,80
189,16	1301,48
189,38	1323,70
189,60	1306,81
189,82	1298,21
190,03	1335,07
190,25	1304,97
190,47	1307,22
190,69	1316,64
190,91	1283,05
191,13	1316,64
191,35	1333,02
191,57	1321,86
191,79	1312,44
192,01	1337,73
192,22	1329,85
192,44	1309,78
192,66	1330,57
192,88	1328,21
193,10	1320,74
193,32	1314,08
193,54	1336,20
193,76	1335,89
193,98	1296,57
194,19	1326,57
194,41	1320,43
194,63	1310,19
194,85	1313,77
195,07	1324,42
195,29	1283,97
195,51	1334,46
195,73	1307,94
195,94	1310,50
196,16	1315,92
196,38	1350,64
196,60	1289,71
196,82	1314,59
197,04	1308,04
197,26	1303,84
197,48	1303,43
197,69	1300,77
197,91	1295,95
198,13	1309,68
198,35	1316,33
198,57	1312,24
198,79	1317,97
199,01	1321,25
199,22	1312,54
199,44	1337,84
199,66	1301,28
199,88	1309,68
200,10	1317,25
200,32	1334,87
200,54	1328,93
200,75	1346,95
200,97	1312,95
201,19	1327,60
201,41	1340,81
201,63	1309,27
201,85	1321,66
202,06	1330,67
202,28	1311,11
202,50	1321,45
202,72	1307,01
202,94	1304,45
203,16	1317,46
203,38	1313,57
203,59	1296,36
203,81	1322,99
204,03	1294,01
204,25	1325,45
204,47	1342,55
204,69	1334,76
204,90	1296,67
205,12	1329,44
205,34	1307,32
205,56	1328,52
205,78	1321,55
206,00	1353,50
206,21	1328,01
206,43	1304,04
206,65	1311,31
206,87	1312,13
207,09	1330,87
207,30	1303,74
207,52	1325,04
207,74	1334,46
207,96	1300,46
208,18	1317,05
208,40	1307,83
208,61	1304,56
208,83	1326,16
209,05	1309,06
209,27	1303,84
209,49	1334,15
209,70	1337,84
209,92	1339,78
210,14	1295,75
210,36	1314,08
210,58	1314,08
210,79	1316,33
211,01	1300,05
211,23	1330,77
211,45	1345,00
211,67	1329,34
211,88	1282,13
212,10	1334,76
212,32	1309,98
212,54	1307,73
212,76	1322,48
212,97	1312,13
213,19	1296,47
213,41	1334,97
213,63	1306,81
213,85	1320,43
214,06	1302,51
214,28	1345,41
214,50	1303,94
214,72	1316,54
214,94	1307,01
215,15	1321,25
215,37	1317,25
215,59	1314,49
215,81	1327,70
216,02	1327,90
216,24	1326,57
216,46	1323,30
216,68	1315,72
216,90	1333,53
217,11	1332,00
217,33	1318,28
217,55	1338,65
217,77	1318,38
217,98	1337,94
218,20	1326,47
218,42	1350,02
218,64	1321,14
218,85	1343,77
219,07	1331,79
219,29	1300,56
219,51	1339,27
219,73	1315,31
219,94	1326,98
220,16	1336,40
220,38	1317,77
220,60	1313,36
220,81	1308,45
221,03	1296,98
221,25	1333,23
221,47	1298,41
221,68	1320,22
221,90	1325,55
222,12	1323,60
222,34	1331,08
222,55	1316,84
222,77	1349,71
222,99	1326,57
223,21	1315,31
223,42	1346,33
223,64	1322,48
223,86	1316,33
224,08	1318,69
224,29	1346,64
224,51	1337,12
224,73	1321,25
224,94	1337,94
225,16	1303,33
225,38	1329,95
225,60	1331,90
225,81	1318,69
226,03	1322,17
226,25	1307,32
226,47	1334,05
226,68	1337,22
226,90	1337,63
227,12	1338,35
227,33	1339,99
227,55	1326,78
227,77	1318,28
227,99	1347,97
228,20	1318,58
228,42	1328,21
228,64	1323,81
228,86	1326,57
229,07	1318,28
229,29	1304,25
229,51	1299,44
229,72	1353,40
229,94	1326,47
230,16	1330,97
230,38	1317,05
230,59	1318,99
230,81	1353,09
231,03	1338,76
231,24	1304,04
231,46	1317,46
231,68	1325,24
231,89	1315,72
232,11	1310,80
232,33	1360,16
232,55	1329,95
232,76	1339,06
232,98	1325,14
233,20	1327,19
233,41	1323,81
233,63	1317,66
233,85	1325,34
234,06	1321,76
234,28	1331,38
234,50	1287,15
234,71	1331,28
234,93	1335,48
235,15	1325,24
235,37	1302,20
235,58	1339,99
235,80	1298,51
236,02	1331,49
236,23	1333,13
236,45	1306,19
236,67	1338,25
236,88	1321,25
237,10	1330,67
237,32	1339,88
237,53	1319,20
237,75	1332,82
237,97	1297,08
238,18	1319,10
238,40	1323,70
238,62	1323,40
238,83	1320,12
239,05	1322,99
239,27	1336,40
239,48	1314,28
239,70	1324,52
239,92	1337,43
240,13	1343,47
240,35	1317,56
240,57	1325,34
240,78	1340,60
241,00	1313,46
241,22	1336,91
241,43	1337,84
241,65	1319,51
241,87	1354,63
242,08	1365,07
242,30	1297,49
242,52	1318,89
242,73	1352,89
242,95	1296,67
243,16	1328,31
243,38	1359,13
243,60	1330,36
243,81	1344,80
244,03	1344,29
244,25	1298,10
244,46	1311,93
244,68	1321,55
244,90	1324,93
245,11	1333,94
245,33	1318,28
245,55	1329,23
245,76	1320,74
245,98	1309,68
246,19	1357,39
246,41	1346,03
246,63	1323,81
246,84	1328,93
247,06	1330,16
247,28	1340,29
247,49	1333,64
247,71	1315,31
247,92	1340,19
248,14	1364,36
248,36	1335,79
248,57	1352,68
248,79	1351,15
249,01	1333,33
249,22	1319,81
249,44	1339,88
249,65	1325,24
249,87	1318,38
250,09	1336,91
250,30	1337,02
250,52	1332,10
250,73	1341,62
250,95	1313,57
251,17	1317,56
251,38	1320,12
251,60	1317,46
251,81	1332,00
252,03	1354,32
252,25	1297,18
252,46	1333,43
252,68	1343,98
252,89	1326,67
253,11	1330,57
253,33	1339,06
253,54	1317,56
253,76	1337,43
253,97	1338,14
254,19	1334,97
254,41	1317,46
254,62	1357,91
254,84	1351,25
255,05	1331,28
255,27	1333,64
255,49	1357,09
255,70	1333,23
255,92	1326,98
256,13	1304,15
256,35	1349,10
256,56	1355,45
256,78	1339,78
257,00	1336,30
257,21	1333,64
257,43	1326,37
257,64	1333,84
257,86	1336,30
258,08	1332,92
258,29	1368,35
258,51	1318,07
258,72	1335,99
258,94	1347,46
259,15	1331,38
259,37	1334,66
259,59	1304,97
259,80	1338,35
260,02	1329,13
260,23	1342,44
260,45	1315,41
260,66	1338,96
260,88	1328,01
261,09	1313,26
261,31	1323,60
261,53	1355,86
261,74	1360,67
261,96	1310,80
262,17	1325,34
262,39	1325,75
262,60	1323,70
262,82	1336,40
263,03	1328,52
263,25	1345,52
263,46	1335,28
263,68	1328,52
263,90	1341,93
264,11	1319,61
264,33	1352,07
264,54	1343,77
264,76	1328,52
264,97	1355,14
265,19	1324,73
265,40	1353,91
265,62	1306,30
265,83	1350,12
266,05	1330,57
266,26	1324,63
266,48	1366,51
266,70	1362,10
266,91	1296,36
267,13	1347,77
267,34	1329,03
267,56	1344,90
267,77	1323,81
267,99	1325,34
268,20	1351,04
268,42	1335,48
268,63	1320,33
268,85	1383,30
269,06	1351,76
269,28	1351,76
269,49	1326,37
269,71	1343,37
269,92	1321,66
270,14	1332,51
270,35	1323,50
270,57	1339,17
270,78	1324,73
271,00	1325,55
271,21	1374,08
271,43	1324,22
271,64	1323,60
271,86	1358,01
272,07	1294,42
272,29	1363,44
272,50	1319,10
272,72	1351,35
272,93	1354,53
273,15	1351,76
273,36	1335,17
273,58	1338,14
273,79	1314,18
274,01	1333,53
274,22	1319,51
274,44	1343,26
274,65	1344,49
274,87	1350,74
275,08	1335,17
275,30	1339,58
275,51	1370,19
275,73	1377,16
275,94	1322,27
276,16	1327,90
276,37	1341,52
276,59	1330,46
276,80	1331,49
277,02	1333,23
277,23	1322,58
277,45	1347,15
277,66	1312,13
277,88	1345,31
278,09	1370,40
278,30	1349,30
278,52	1321,25
278,73	1373,37
278,95	1335,99
279,16	1353,71
279,38	1328,31
279,59	1341,52
279,81	1327,80
280,02	1337,43
280,24	1329,64
280,45	1352,99
280,67	1356,37
280,88	1353,81
281,09	1316,33
281,31	1327,49
281,52	1322,58
281,74	1360,16
281,95	1332,10
282,17	1325,34
282,38	1332,20
282,60	1335,79
282,81	1349,51
283,02	1335,48
283,24	1328,11
283,45	1351,35
283,67	1326,37
283,88	1344,29
284,10	1341,21
284,31	1331,49
284,53	1325,75
284,74	1335,99
284,95	1332,61
285,17	1347,56
285,38	1322,48
285,60	1325,45
285,81	1324,52
286,03	1351,35
286,24	1350,84
286,45	1358,21
286,67	1335,58
286,88	1334,56
287,10	1340,19
287,31	1320,22
287,53	1330,26
287,74	1349,41
287,95	1318,69
288,17	1340,09
288,38	1332,72
288,60	1329,13
288,81	1330,36
289,02	1325,34
289,24	1346,95
289,45	1328,11
289,67	1350,43
289,88	1340,29
290,10	1328,82
290,31	1345,21
290,52	1326,37
290,74	1347,46
290,95	1333,53
291,17	1358,11
291,38	1320,63
291,59	1334,97
291,81	1338,25
292,02	1340,91
292,24	1345,31
292,45	1341,52
292,66	1342,44
292,88	1358,52
293,09	1343,37
293,31	1337,32
293,52	1347,46
293,73	1315,41
293,95	1345,41
294,16	1359,54
294,37	1342,65
294,59	1354,53
294,80	1354,32
295,02	1346,54
295,23	1315,92
295,44	1338,04
295,66	1333,74
295,87	1366,61
296,09	1332,10
296,30	1358,62
296,51	1325,85
296,73	1315,92
296,94	1328,21
297,15	1334,66
297,37	1320,02
297,58	1333,23
297,79	1338,35
298,01	1339,58
298,22	1358,72
298,44	1340,19
298,65	1339,88
298,86	1351,04
299,08	1319,20
299,29	1330,97
299,50	1336,20
299,72	1332,20
299,93	1337,73
300,14	1358,11
300,36	1311,42
300,57	1326,78
300,79	1335,17
301,00	1366,81
301,21	1311,21
301,43	1354,32
301,64	1337,12
301,85	1345,93
302,07	1354,32
302,28	1335,89
302,49	1366,30
302,71	1334,15
302,92	1366,40
303,13	1378,18
303,35	1346,44
303,56	1360,67
303,77	1326,26
303,99	1352,58
304,20	1358,93
304,41	1348,79
304,63	1337,84
304,84	1360,36
305,05	1362,21
305,27	1355,76
305,48	1342,24
305,69	1345,41
305,91	1363,95
306,12	1343,88
306,33	1363,23
306,55	1367,74
306,76	1354,53
306,97	1360,06
307,19	1349,00
307,40	1374,08
307,61	1356,68
307,82	1342,65
308,04	1366,40
308,25	1360,98
308,46	1356,88
308,68	1354,73
308,89	1373,68
309,10	1366,81
309,32	1346,23
309,53	1357,50
309,74	1359,24
309,96	1346,13
310,17	1359,24
310,38	1348,28
310,59	1362,82
310,81	1356,27
311,02	1355,04
311,23	1369,48
311,45	1356,68
311,66	1366,71
311,87	1345,00
312,09	1381,76
312,30	1363,33
312,51	1375,21
312,72	1368,76
312,94	1383,81
313,15	1373,88
313,36	1376,54
313,58	1352,99
313,79	1392,72
314,00	1366,51
314,21	1343,98
314,43	1373,27
314,64	1372,45
314,85	1351,76
315,06	1360,98
315,28	1381,15
315,49	1383,91
315,70	1383,40
315,92	1398,46
316,13	1415,45
316,34	1407,16
316,55	1389,24
316,77	1379,92
316,98	1401,22
317,19	1367,94
317,40	1353,40
317,62	1384,43
317,83	1401,73
318,04	1377,87
318,25	1369,17
318,47	1397,53
318,68	1381,76
318,89	1409,72
319,11	1376,85
319,32	1393,13
319,53	1405,42
319,74	1400,81
319,96	1397,53
320,17	1396,00
320,38	1359,03
320,59	1412,28
320,81	1397,33
321,02	1403,78
321,23	1393,23
321,44	1408,29
321,65	1396,82
321,87	1423,03
322,08	1427,84
322,29	1416,27
322,50	1378,90
322,72	1405,42
322,93	1402,04
323,14	1404,19
323,35	1403,06
323,57	1424,46
323,78	1395,49
323,99	1426,31
324,20	1432,66
324,41	1407,57
324,63	1424,16
324,84	1415,97
325,05	1416,07
325,26	1426,62
325,48	1432,96
325,69	1440,64
325,90	1421,09
326,11	1436,45
326,32	1411,15
326,54	1423,75
326,75	1422,83
326,96	1435,73
327,17	1455,80
327,39	1426,21
327,60	1445,15
327,81	1420,98
328,02	1424,57
328,23	1442,69
328,45	1439,52
328,66	1432,96
328,87	1427,74
329,08	1433,89
329,29	1420,27
329,51	1430,40
329,72	1425,28
329,93	1451,81
330,14	1442,59
330,35	1450,47
330,56	1436,14
330,78	1463,79
330,99	1449,76
331,20	1459,69
331,41	1474,54
331,62	1444,33
331,84	1471,06
332,05	1490,20
332,26	1493,79
332,47	1496,35
332,68	1469,32
332,90	1470,95
333,11	1453,85
333,32	1525,33
333,53	1494,30
333,74	1453,44
333,95	1504,64
334,17	1487,13
334,38	1477,92
334,59	1483,86
334,80	1470,24
335,01	1504,64
335,22	1486,52
335,44	1518,98
335,65	1482,63
335,86	1496,45
336,07	1488,36
336,28	1504,13
336,49	1493,38
336,71	1496,76
336,92	1527,27
337,13	1513,35
337,34	1504,85
337,55	1559,43
337,76	1497,27
337,97	1527,07
338,19	1516,21
338,40	1511,81
338,61	1523,18
338,82	1523,69
339,03	1529,63
339,24	1521,13
339,45	1521,64
339,67	1537,51
339,88	1541,71
340,09	1539,87
340,30	1534,44
340,51	1550,52
340,72	1546,22
340,93	1516,11
341,15	1548,98
341,36	1572,74
341,57	1529,42
341,78	1534,75
341,99	1558,09
342,20	1585,95
342,41	1567,11
342,62	1601,61
342,84	1524,82
343,05	1594,86
343,26	1549,19
343,47	1604,79
343,68	1539,36
343,89	1577,14
344,10	1575,40
344,31	1596,90
344,53	1558,50
344,74	1582,47
344,95	1579,19
345,16	1598,03
345,37	1599,77
345,58	1590,76
345,79	1584,00
346,00	1576,32
346,21	1600,49
346,42	1607,35
346,64	1614,52
346,85	1634,69
347,06	1604,17
347,27	1612,37
347,48	1647,90
347,69	1633,56
347,90	1617,79
348,11	1665,61
348,32	1610,93
348,53	1639,19
348,75	1617,90
348,96	1667,76
349,17	1631,62
349,38	1639,71
349,59	1635,20
349,80	1649,23
350,01	1673,70
350,22	1689,47
350,43	1660,70
350,64	1683,94
350,85	1684,97
351,06	1668,28
351,28	1682,00
351,49	1662,75
351,70	1704,22
351,91	1667,15
352,12	1692,13
352,33	1688,04
352,54	1683,64
352,75	1677,90
352,96	1697,05
353,17	1736,58
353,38	1721,93
353,59	1743,74
353,80	1754,80
354,01	1739,14
354,22	1717,73
354,44	1725,21
354,65	1771,19
354,86	1747,53
355,07	1737,60
355,28	1732,68
355,49	1735,35
355,70	1750,50
355,91	1775,28
356,12	1739,95
356,33	1753,68
356,54	1787,57
356,75	1776,20
356,96	1794,33
357,17	1786,34
357,38	1789,52
357,59	1776,72
357,80	1808,25
358,01	1802,83
358,22	1794,84
358,43	1809,38
358,64	1814,60
358,85	1791,15
359,07	1810,81
359,28	1819,62
359,49	1840,61
359,70	1796,79
359,91	1825,46
360,12	1813,78
360,33	1844,30
360,54	1805,18
360,75	1834,98
360,96	1819,93
361,17	1798,83
361,38	1815,83
361,59	1878,29
361,80	1819,01
362,01	1878,50
362,22	1850,85
362,43	1857,00
362,64	1880,14
362,85	1887,00
363,06	1889,87
363,27	1915,67
363,48	1883,82
363,69	1919,46
363,90	1876,55
364,11	1901,64
364,32	1892,12
364,53	1917,00
364,74	1915,47
364,95	1942,29
365,16	1917,00
365,37	1964,21
365,58	1916,69
365,79	1920,18
366,00	1944,24
366,21	1934,10
366,42	1974,24
366,63	1987,04
366,84	1954,27
367,05	1959,80
367,26	1942,29
367,47	1973,63
367,68	1968,20
367,89	1968,10
368,10	1948,23
368,31	1923,35
368,52	1960,11
368,73	1981,61
368,94	1998,31
369,15	1984,89
369,36	2006,19
369,57	1994,93
369,78	2014,38
369,99	2044,38
370,20	2059,13
370,40	2041,93
370,61	2030,87
370,82	2065,07
371,03	2098,35
371,24	2095,28
371,45	2114,12
371,66	2085,75
371,87	2072,75
372,08	2126,41
372,29	2105,11
372,50	2115,96
372,71	2133,37
372,92	2171,87
373,13	2128,45
373,34	2128,97
373,55	2149,34
373,76	2182,01
373,97	2159,48
374,18	2175,86
374,39	2176,79
374,60	2224,40
374,81	2188,97
375,01	2155,18
375,22	2223,58
375,43	2187,03
375,64	2225,22
375,85	2191,33
376,06	2220,31
376,27	2237,30
376,48	2244,57
376,69	2223,99
376,90	2247,13
377,11	2274,99
377,32	2245,70
377,53	2277,34
377,74	2274,17
377,94	2257,48
378,15	2287,38
378,36	2307,75
378,57	2279,49
378,78	2329,87
378,99	2317,17
379,20	2374,41
379,41	2320,45
379,62	2336,63
379,83	2339,39
380,04	2348,10
380,25	2325,47
380,45	2358,03
380,66	2388,03
380,87	2372,57
381,08	2357,01
381,29	2383,94
381,50	2375,13
381,71	2405,34
381,92	2429,10
382,13	2406,88
382,34	2385,99
382,55	2432,78
382,75	2420,29
382,96	2452,95
383,17	2463,50
383,38	2463,81
383,59	2455,51
383,80	2413,12
384,01	2466,06
384,22	2524,74
384,43	2493,91
384,63	2461,25
384,84	2484,29
385,05	2499,24
385,26	2487,87
385,47	2537,84
385,68	2545,42
385,89	2551,46
386,10	2526,89
386,30	2604,30
386,51	2500,06
386,72	2571,84
386,93	2554,84
387,14	2569,48
387,35	2620,07
387,56	2618,02
387,77	2578,80
387,97	2640,86
388,18	2630,10
388,39	2633,59
388,60	2669,63
388,81	2648,23
389,02	2687,75
389,23	2657,03
389,43	2648,84
389,64	2679,26
389,85	2652,22
390,06	2673,62
390,27	2696,46
390,48	2732,09
390,69	2715,50
390,89	2746,53
391,10	2762,20
391,31	2718,78
391,52	2764,04
391,73	2785,95
391,94	2792,92
392,14	2762,30
392,35	2800,90
392,56	2846,88
392,77	2869,72
392,98	2832,96
393,19	2847,70
393,39	2917,84
393,60	2843,09
393,81	2933,31
394,02	2881,18
394,23	2869,00
394,44	2869,92
394,64	2882,82
394,85	2964,64
395,06	2890,40
395,27	2919,58
395,48	3016,04
395,69	2939,76
395,89	3010,00
396,10	3033,96
396,31	3025,46
396,52	2994,74
396,73	2980,72
396,93	3061,00
397,14	3017,27
397,35	3140,97
397,56	3063,04
397,77	3047,89
397,97	3112,50
398,18	3167,59
398,39	3076,05
398,60	3121,82
398,81	3086,90
399,01	3128,99
399,22	3120,39
399,43	3197,80
399,64	3188,48
399,85	3171,38
400,05	3165,55
400,26	3176,60
400,47	3170,56
400,68	3204,05
400,89	3216,44
401,09	3205,79
401,30	3273,78
401,51	3238,66
401,72	3276,44
401,93	3342,90
402,13	3304,70
402,34	3284,74
402,55	3326,72
402,76	3360,41
402,96	3355,60
403,17	3307,67
403,38	3396,35
403,59	3331,74
403,80	3496,50
404,00	3426,66
404,21	3383,86
404,42	3498,14
404,63	3473,05
404,83	3506,53
405,04	3395,02
405,25	3482,47
405,46	3473,66
405,66	3431,17
405,87	3519,33
406,08	3505,10
406,29	3615,79
406,49	3504,07
406,70	3577,60
406,91	3504,59
407,12	3628,08
407,32	3525,58
407,53	3699,04
407,74	3629,72
407,95	3599,92
408,15	3653,47
408,36	3599,41
408,57	3689,72
408,78	3683,99
408,98	3707,03
409,19	3651,63
409,40	3734,88
409,61	3703,44
409,81	3729,04
410,02	3747,58
410,23	3786,49
410,44	3891,76
410,64	3777,68
410,85	3773,48
411,06	3826,83
411,26	3825,91
411,47	3815,88
411,68	3857,76
411,89	3755,05
412,09	3855,40
412,30	3890,94
412,51	3772,97
412,72	3829,29
412,92	4019,14
413,13	3920,02
413,34	3939,27
413,54	3920,94
413,75	3980,64
413,96	3940,19
414,17	3884,08
414,37	3961,28
414,58	3987,29
414,79	4023,34
414,99	4012,48
415,20	4058,36
415,41	4014,12
415,61	4064,71
415,82	4102,80
416,03	3998,66
416,24	4068,90
416,44	4104,54
416,65	4187,79
416,86	4259,67
417,06	4135,77
417,27	4126,55
417,48	4115,60
417,68	4193,32
417,89	4244,52
418,10	4160,86
418,30	4242,06
418,51	4219,12
418,72	4208,99
418,92	4363,30
419,13	4207,14
419,34	4300,02
419,55	4267,35
419,75	4476,55
419,96	4233,97
420,17	4422,28
420,37	4334,63
420,58	4252,10
420,79	4249,94
420,99	4403,54
421,20	4469,90
421,41	4402,52
421,61	4475,84
421,82	4330,43
422,03	4483,00
422,23	4425,97
422,44	4535,53
422,65	4522,94
422,85	4462,42
423,06	4499,39
423,26	4594,11
423,47	4653,60
423,68	4514,24
423,88	4661,38
424,09	4607,83
424,30	4582,43
424,50	4606,09
424,71	4717,60
424,92	4669,06
425,12	4686,57
425,33	4813,96
425,54	4778,01
425,74	4826,96
425,95	4711,15
426,15	4861,16
426,36	4667,22
426,57	4890,75
426,77	4762,45
426,98	4815,49
427,19	4792,35
427,39	4901,71
427,60	4800,23
427,81	4895,46
428,01	4856,96
428,22	5077,63
428,42	4784,77
428,63	4957,42
428,84	4948,81
429,04	4916,56
429,25	4939,80
429,45	4893,11
429,66	5035,03
429,87	5051,62
430,07	5086,44
430,28	5032,47
430,49	5057,97
430,69	5147,77
430,90	5071,79
431,10	5115,01
431,31	5123,92
431,52	5303,01
431,72	5098,42
431,93	5119,10
432,13	5249,46
432,34	5363,02
432,55	5116,34
432,75	5440,43
432,96	5429,68
433,16	5273,11
433,37	5425,79
433,58	5494,29
433,78	5474,63
433,99	5148,39
434,19	5443,30
434,40	5448,01
434,60	5527,06
434,81	5517,74
435,02	5473,50
435,22	5577,54
435,43	5496,24
435,63	5559,21
435,84	5596,69
436,05	5731,65
436,25	5402,85
436,46	5728,17
436,66	5693,15
436,87	5668,68
437,07	5541,09
437,28	5637,44
437,48	5802,10
437,69	5620,86
437,90	5688,44
438,10	5763,70
438,31	5735,44
438,51	5938,70
438,72	5816,54
438,92	5823,30
439,13	5902,14
439,34	5893,85
439,54	5890,06
439,75	5852,58
439,95	5876,65
440,16	5950,07
440,36	6064,34
440,57	5926,82
440,77	6126,09
440,98	5943,51
441,18	5934,81
441,39	5953,34
441,60	6203,81
441,80	6103,97
442,01	5935,42
442,21	6159,27
442,42	5996,76
442,62	6071,41
442,83	6078,17
443,03	6170,43
443,24	6206,47
443,44	6151,48
443,65	6230,94
443,85	6185,89
444,06	6258,39
444,26	6291,56
444,47	6184,25
444,67	6460,32
444,88	6288,29
445,09	6193,47
445,29	6333,55
445,50	6301,09
445,70	6223,06
445,91	6364,06
446,11	6192,75
446,32	6410,14
446,52	6379,73
446,73	6370,00
446,93	6400,72
447,14	6392,12
447,34	6439,53
447,55	6307,95
447,75	6491,65
447,96	6577,97
448,16	6440,04
448,37	6490,63
448,57	6447,21
448,78	6552,27
448,98	6493,90
449,19	6475,57
449,39	6628,76
449,60	6506,29
449,80	6640,23
450,01	6626,31
450,21	6588,93
450,42	6684,26
450,62	6643,71
450,83	6660,61
451,03	6667,47
451,23	6715,60
451,44	6703,41
451,64	6835,51
451,85	6695,83
452,05	6857,11
452,26	6804,89
452,46	6815,03
452,67	6784,82
452,87	6726,96
453,08	6841,44
453,28	6677,40
453,49	6962,58
453,69	6784,31
453,90	6924,49
454,10	6987,87
454,31	7018,90
454,51	6948,86
454,71	6986,75
454,92	6929,40
455,12	6859,57
455,33	7098,87
455,53	7143,72
455,74	7349,03
455,94	7425,53
456,15	7537,45
456,35	7693,50
456,55	7570,42
456,76	7757,19
456,96	8080,26
457,17	7564,17
457,37	8340,35
457,58	7906,59
457,78	8294,99
457,99	8091,22
458,19	7697,60
458,39	8124,60
458,60	8340,25
458,80	8340,56
459,01	8160,75
459,21	8216,55
459,42	8491,80
459,62	8008,99
459,82	8730,29
460,03	8414,39
460,23	8604,85
460,44	8545,76
460,64	8091,22
460,85	8927,10
461,05	8397,49
461,25	8398,72
461,46	9033,08
461,66	8844,05
461,87	8603,72
462,07	8752,92
462,27	8413,98
462,48	8406,60
462,68	8688,71
462,89	8601,47
463,09	8634,44
463,29	8800,53
463,50	8704,58
463,70	8972,77
463,91	8703,87
464,11	8565,42
464,31	8980,14
464,52	9044,03
464,72	9157,29
464,93	8952,39
465,13	9542,51
465,33	9047,62
465,54	8851,53
465,74	8776,26
465,95	9153,50
466,15	9283,95
466,35	9404,99
466,56	9228,86
466,76	9352,46
466,96	9246,48
467,17	9388,20
467,37	9432,23
467,58	9412,57
467,78	9383,08
467,98	9705,53
468,19	9277,20
468,39	9662,73
468,59	9861,07
468,80	9763,90
469,00	9557,36
469,21	9580,30
469,41	9701,23
469,61	10159,77
469,82	9650,64
470,02	10206,87
470,22	10460,82
470,43	10282,54
470,63	9939,61
470,83	10772,83
471,04	10212,50
471,24	10379,82
471,45	10219,57
471,65	10376,24
471,85	10369,48
472,06	10605,82
472,26	10684,15
472,46	10755,01
472,67	10963,19
472,87	10891,00
473,07	10836,93
473,28	10841,54
473,48	11072,86
473,68	11155,49
473,89	11186,11
474,09	11195,32
474,29	11103,78
474,50	11419,06
474,70	11278,68
474,90	11598,47
475,11	11741,62
475,31	11759,64
475,51	11777,87
475,72	11825,18
475,92	11983,38
476,12	11826,61
476,33	12156,03
476,53	12192,89
476,73	12353,04
476,93	12478,79
477,14	12294,37
477,34	12343,31
477,54	12630,95
477,75	12754,34
477,95	12668,63
478,15	12900,26
478,36	13021,50
478,56	13094,30
478,76	13378,15
478,97	13478,81
479,17	13360,95
479,37	13336,68
479,57	13553,97
479,78	13604,04
479,98	13500,31
480,18	13851,85
480,39	14044,36
480,59	13977,28
480,79	14007,18
480,99	14149,01
481,20	14188,94
481,40	14340,80
481,60	14507,09
481,81	14488,56
482,01	14566,59
482,21	14738,41
482,41	14809,89
482,62	14926,01
482,82	15009,56
483,02	15276,93
483,23	15175,24
483,43	15494,01
483,63	15385,47
483,83	15599,07
484,04	15906,37
484,24	15655,70
484,44	16040,41
484,64	15833,36
484,85	16025,56
485,05	16246,43
485,25	16317,60
485,45	16226,36
485,66	16410,37
485,86	16584,25
486,06	16506,53
486,26	16692,28
486,47	16769,38
486,67	16945,51
486,87	17036,34
487,07	17054,87
487,28	17086,10
487,48	17170,89
487,68	17617,34
487,88	17478,29
488,09	17600,24
488,29	17635,67
488,49	17987,62
488,69	17858,80
488,90	18009,94
489,10	17860,34
489,30	17963,25
489,50	18094,83
489,71	18194,56
489,91	18409,09
490,11	18314,57
490,31	18446,16
490,52	18546,61
490,72	18619,01
490,92	18995,32
491,12	18933,98
491,32	19082,87
491,53	19127,52
491,73	19037,41
491,93	19283,37
492,13	19393,85
492,33	19381,16
492,54	19445,05
492,74	19692,35
492,94	19588,92
493,14	19823,62
493,35	19763,72
493,55	19890,90
493,75	20136,76
493,95	20084,43
494,15	19991,96
494,36	20331,52
494,56	20208,13
494,76	20413,74
494,96	20383,84
495,16	20487,16
495,37	20602,05
495,57	20516,65
495,77	20604,10
495,97	20778,28
496,17	20994,65
496,37	20847,71
496,58	20965,47
496,78	20858,36
496,98	21166,37
497,18	21302,77
497,38	21289,25
497,59	21395,13
497,79	21496,30
497,99	21504,49
498,19	21540,64
498,39	21620,20
498,59	21839,23
498,80	21734,99
499,00	21950,23
499,20	21854,59
499,40	21704,99
499,60	21801,86
499,80	22031,84
500,01	21946,03
500,21	21873,64
500,41	21896,68
500,61	22004,40
500,81	21967,02
501,01	21883,88
501,22	22085,50
501,42	21957,30
501,62	21842,51
501,82	21893,09
502,02	21917,98
502,22	21791,31
502,42	21902,21
502,63	22090,11
502,83	22021,71
503,03	22037,58
503,23	22213,50
503,43	22201,11
503,63	22284,05
503,83	22507,89
504,04	22250,98
504,24	22427,41
504,44	22453,21
504,64	22670,71
504,84	22709,52
505,04	22689,96
505,24	22994,49
505,44	23085,11
505,65	22951,79
505,85	23136,11
506,05	23255,81
506,25	23175,84
506,45	23000,63
506,65	23110,41
506,85	23296,77
507,05	23288,89
507,26	23055,11
507,46	23070,68
507,66	23102,83
507,86	22916,98
508,06	23093,51
508,26	23054,39
508,46	23094,02
508,66	23104,36
508,86	23368,65
509,06	23343,57
509,27	23370,70
509,47	23288,07
509,67	23338,04
509,87	23363,23
510,07	23374,70
510,27	23486,92
510,47	23560,34
510,67	23508,84
510,87	23596,90
511,07	23546,01
511,28	23573,25
511,48	23471,26
511,68	23676,67
511,88	23812,45
512,08	23803,64
512,28	23941,88
512,48	23908,81
512,68	23948,33
512,88	24055,44
513,08	24238,53
513,28	24290,45
513,48	24257,78
513,68	24532,11
513,89	24419,26
514,09	24308,26
514,29	24761,68
514,49	24707,82
514,69	24579,62
514,89	24887,02
515,09	24950,10
515,29	25054,34
515,49	24910,78
515,69	25009,18
515,89	25158,78
516,09	25320,57
516,29	25258,72
516,49	25352,52
516,69	25387,24
516,89	25381,71
517,09	25442,94
517,29	25595,72
517,50	25601,25
517,70	25646,71
517,90	25728,94
518,10	25726,48
518,30	26130,44
518,50	25888,78
518,70	25964,97
518,90	26446,65
519,10	26378,76
519,30	26528,16
519,50	26575,06
519,70	26716,98
519,90	26695,27
520,10	26919,12
520,30	26684,62
520,50	26570,65
520,70	26858,50
520,90	27013,02
521,10	27040,97
521,30	27247,51
521,50	27606,62
521,70	27641,43
521,90	27811,11
522,10	28199,40
522,30	27792,68
522,50	28061,47
522,70	27921,60
522,90	28230,33
523,10	28073,25
523,30	28484,89
523,50	28431,13
523,70	28469,94
523,90	28621,39
524,10	28738,63
524,30	28705,66
524,50	28849,33
524,70	29023,30
524,90	29007,84
525,10	29183,15
525,30	29138,91
525,50	29459,52
525,70	29367,36
525,90	29239,16
526,10	29418,56
526,30	29674,96
526,50	29616,50
526,70	29732,51
526,90	29868,91
527,10	29917,44
527,30	30164,53
527,50	30401,07
527,70	30192,08
527,90	30360,52
528,10	30275,12
528,30	30588,87
528,50	30579,04
528,70	30674,37
528,90	30962,73
529,10	30949,01
529,30	30834,42
529,50	31167,52
529,70	30969,79
529,90	31294,29
530,10	31229,48
530,29	31085,30
530,49	31340,88
530,69	31309,45
530,89	31452,81
531,09	31340,88
531,29	31547,01
531,49	31711,67
531,69	31769,22
531,89	31850,42
532,09	32015,08
532,29	31983,44
532,49	31924,97
532,69	32086,35
532,89	32189,26
533,09	32146,56
533,29	32265,54
533,49	32127,41
533,68	32155,57
533,88	32556,46
534,08	32299,33
534,28	32148,40
534,48	32333,95
534,68	32457,74
534,88	32257,45
535,08	32615,03
535,28	32625,58
535,48	32806,31
535,68	32808,25
535,88	32937,17
536,08	33198,90
536,27	33300,48
536,47	33099,17
536,67	33645,05
536,87	33480,30
537,07	33334,89
537,27	33658,26
537,47	33738,75
537,67	33506,71
537,87	33655,60
538,07	33986,55
538,27	33654,27
538,46	33915,90
538,66	33757,49
538,86	33430,73
539,06	33903,82
539,26	33765,37
539,46	33528,53
539,66	33691,85
539,86	33754,21
540,06	33947,95
540,25	33552,79
540,45	33699,22
540,65	33680,07
540,85	33835,52
541,05	33999,46
541,25	33943,44
541,45	34199,13
541,65	34033,14
541,85	34073,59
542,04	34072,47
542,24	34135,03
542,44	34326,11
542,64	34299,38
542,84	34318,32
543,04	34246,13
543,24	34110,35
543,43	34222,38
543,63	34286,07
543,83	34129,91
544,03	34150,70
544,23	34323,75
544,43	34474,89
544,63	34271,94
544,82	34747,68
545,02	34335,83
545,22	34761,61
545,42	34302,45
545,62	34857,96
545,82	34807,99
546,02	34772,77
546,21	34768,98
546,41	34742,15
546,61	34461,78
546,81	35089,08
547,01	34635,15
547,21	35074,95
547,40	34836,05
547,60	34951,25
547,80	34627,06
548,00	35086,01
548,20	34875,78
548,40	34765,91
548,59	35031,12
548,79	35005,01
548,99	34944,80
549,19	34770,11
549,39	34920,63
549,59	35083,96
549,78	34930,97
549,98	35266,23
550,18	34895,24
550,38	34921,55
550,58	34878,14
550,77	35291,21
550,97	35139,56
551,17	34920,02
551,37	35510,86
551,57	35355,83
551,76	35135,67
551,96	35357,36
552,16	35322,65
552,36	35682,78
552,56	35646,64
552,75	35748,22
552,95	35711,35
553,15	35813,44
553,35	35852,25
553,55	35387,06
553,74	35933,66
553,94	35534,72
554,14	35571,17
554,34	35490,89
554,54	35709,20
554,73	36054,18
554,93	35986,50
555,13	36215,97
555,33	36044,66
555,53	36234,51
555,72	35736,75
555,92	35737,98
556,12	35763,99
556,32	35624,01
556,51	35660,67
556,71	35775,86
556,91	35637,11
557,11	35757,33
557,30	35865,56
557,50	35891,88
557,70	35688,93
557,90	36154,02
558,10	36115,01
558,29	35605,68
558,49	36005,03
558,69	35830,13
558,89	35751,70
559,08	35929,36
559,28	35936,32
559,48	35760,81
559,68	35933,86
559,87	35846,72
560,07	35781,91
560,27	36036,16
560,47	36085,72
560,66	36268,50
560,86	36200,41
561,06	36273,11
561,25	36439,00
561,45	36375,41
561,65	36399,78
561,85	36238,40
562,04	36206,24
562,24	36217,10
562,44	36239,52
562,64	36194,67
562,83	36312,74
563,03	36394,04
563,23	36581,53
563,42	36729,30
563,62	36911,77
563,82	36492,96
564,02	36874,80
564,21	36799,95
564,41	36782,44
564,61	36874,09
564,80	36880,85
565,00	36817,46
565,20	36671,44
565,40	36825,35
565,59	36786,64
565,79	36986,11
565,99	36978,12
566,18	36899,99
566,38	36528,29
566,58	36714,24
566,78	36697,76
566,97	36830,26
567,17	36915,56
567,37	37000,65
567,56	36853,20
567,76	36982,53
567,96	37109,09
568,15	36900,61
568,35	36833,95
568,55	37111,04
568,74	36871,63
568,94	37059,94
569,14	36927,33
569,33	36793,40
569,53	36750,70
569,73	37229,61
569,92	36810,91
570,12	37035,06
570,32	37114,01
570,52	36867,02
570,71	37125,58
570,91	37108,99
571,11	37375,22
571,30	37159,37
571,50	37528,62
571,70	37520,94
571,89	37380,65
572,09	37492,78
572,28	37473,73
572,48	37538,14
572,68	37432,88
572,87	37612,89
573,07	37734,75
573,27	37351,78
573,46	37646,27
573,66	37713,65
573,86	37404,41
574,05	37659,07
574,25	37363,55
574,45	37227,98
574,64	37376,04
574,84	37332,52
575,04	37566,10
575,23	37696,14
575,43	37814,82
575,62	38012,96
575,82	37759,53
576,02	37554,42
576,21	38048,29
576,41	38135,12
576,61	38199,53
576,80	38020,03
577,00	37951,63
577,19	38009,79
577,39	38254,11
577,59	38102,77
577,78	38106,86
577,98	38265,07
578,18	38103,89
578,37	38127,75
578,57	38384,67
578,76	38267,22
578,96	38177,82
579,16	38309,82
579,35	38651,21
579,55	38211,51
579,74	38333,26
579,94	38536,22
580,14	38939,67
580,33	39042,07
580,53	38962,20
580,72	39073,09
580,92	38975,41
581,12	38930,35
581,31	39186,96
581,51	39454,43
581,70	39293,05
581,90	39663,22
582,10	39462,31
582,29	39986,69
582,49	39710,52
582,68	40033,80
582,88	40062,77
583,07	40138,34
583,27	40085,61
583,47	40165,68
583,66	40317,23
583,86	40016,90
584,05	40202,14
584,25	40111,21
584,44	40098,10
584,64	39849,68
584,84	39988,43
585,03	39876,51
585,23	39710,73
585,42	40157,39
585,62	39859,00
585,81	40091,65
586,01	39985,67
586,20	40164,35
586,40	40203,06
586,60	39956,48
586,79	40270,23
586,99	40265,32
587,18	40383,79
587,38	40541,08
587,57	40410,72
587,77	40728,16
587,96	40763,08
588,16	40619,41
588,35	40854,93
588,55	41073,34
588,75	40893,02
588,94	41079,90
589,14	41102,32
589,33	40709,63
589,53	41070,78
589,72	40565,76
589,92	41181,58
590,11	40620,03
590,31	40922,61
590,50	40982,31
590,70	40639,07
590,89	41031,77
591,09	40794,62
591,28	40765,84
591,48	41154,55
591,67	40517,22
591,87	41000,44
592,06	41091,67
592,26	41178,51
592,45	40976,68
592,65	41324,63
592,84	41214,14
593,04	41222,95
593,23	41243,74
593,43	41604,89
593,62	41470,96
593,82	41345,21
594,01	41128,23
594,21	41382,59
594,40	41248,24
594,60	41132,33
594,79	41187,62
594,99	40660,99
595,18	41275,48
595,38	41118,91
595,57	41292,99
595,77	41462,05
595,96	41303,64
596,16	41091,57
596,35	40907,36
596,55	40692,32
596,74	40901,83
596,94	40846,22
597,13	40922,51
597,33	41158,95
597,52	40963,27
597,72	41017,74
597,91	41401,53
598,11	41399,59
598,30	41146,97
598,50	41738,32
598,69	41383,30
598,88	41525,84
599,08	41222,64
599,27	41388,63
599,47	41222,44
599,66	41605,92
599,86	41645,03
600,05	41767,30
600,25	42070,60
600,44	41443,92
600,64	41916,08
600,83	42146,17
601,02	42419,99
601,22	42344,62
601,41	41850,45
601,61	42108,39
601,80	42013,46
602,00	42179,86
602,19	41682,00
602,38	41578,99
602,58	41489,29
602,77	41709,65
602,97	41833,35
603,16	42202,80
603,36	41377,26
603,55	42099,48
603,74	41466,14
603,94	41814,71
604,13	41751,73
604,33	41754,91
604,52	41539,26
604,72	41652,41
604,91	41534,96
605,10	41924,79
605,30	41323,81
605,49	41280,39
605,69	41571,72
605,88	41224,48
606,07	41654,87
606,27	41677,29
606,46	41653,64
606,66	41730,74
606,85	41377,67
607,04	41774,47
607,24	41496,66
607,43	41856,39
607,63	41505,88
607,82	41462,77
608,01	41483,25
608,21	41155,67
608,40	41260,43
608,60	41052,56
608,79	40975,76
608,98	40704,91
609,18	41239,54
609,37	40827,49
609,57	40556,85
609,76	40860,56
609,95	40913,09
610,15	41090,44
610,34	41130,99
610,53	41000,54
610,73	40758,67
610,92	40873,36
611,11	40761,54
611,31	40749,77
611,50	40561,76
611,70	40604,15
611,89	40541,59
612,08	40643,78
612,28	40676,76
612,47	40748,64
612,66	40859,54
612,86	40945,65
613,05	40705,73
613,24	40668,26
613,44	40633,13
613,63	40599,44
613,82	40825,54
614,02	40648,80
614,21	40251,29
614,41	40407,55
614,60	40498,89
614,79	40209,10
614,99	40292,15
615,18	40590,33
615,37	40358,91
615,57	41075,49
615,76	40598,22
615,95	40643,48
616,15	40795,44
616,34	41263,70
616,53	41272,41
616,73	41774,06
616,92	41657,53
617,11	41722,04
617,30	41618,72
617,50	41601,11
617,69	41989,20
617,88	42081,15
618,08	41679,24
618,27	41985,30
618,46	42001,28
618,66	41995,34
618,85	42171,16
619,04	42408,93
619,24	42671,48
619,43	42825,18
619,62	42891,43
619,82	43117,11
620,01	43064,38
620,20	43507,46
620,39	43476,74
620,59	43827,25
620,78	43982,79
620,97	44236,12
621,17	44417,06
621,36	44640,50
621,55	44275,96
621,74	44675,82
621,94	44529,29
622,13	44859,32
622,32	44816,52
622,52	44832,19
622,71	45102,83
622,90	44992,34
623,09	45113,99
623,29	45342,74
623,48	45397,63
623,67	45613,38
623,86	45501,67
624,06	45629,36
624,25	45614,51
624,44	45646,87
624,64	45465,83
624,83	45389,95
625,02	44960,29
625,21	45425,79
625,41	45657,01
625,60	45625,67
625,79	45647,89
625,98	45742,82
626,18	46273,96
626,37	45717,93
626,56	45571,09
626,75	46208,22
626,95	45624,14
627,14	45991,03
627,33	46498,52
627,52	46318,81
627,72	46289,83
627,91	46269,35
628,10	46437,79
628,29	46389,36
628,49	46303,04
628,68	46281,33
628,87	46405,13
629,06	47012,86
629,25	46752,57
629,45	46690,41
629,64	46978,36
629,83	47265,38
630,02	47082,70
630,22	46994,12
630,41	47225,03
630,60	46911,90
630,79	46690,31
630,98	46620,68
631,18	46480,29
631,37	46426,94
631,56	46787,79
631,75	46872,48
631,94	46617,09
632,14	46374,92
632,33	46444,04
632,52	46618,42
632,71	46400,11
632,90	46576,34
633,10	46600,81
633,29	46494,83
633,48	46741,30
633,67	46648,43
633,86	46867,66
634,06	47077,68
634,25	46784,21
634,44	46927,05
634,63	46521,15
634,82	46699,42
635,02	46341,85
635,21	46688,57
635,40	46864,49
635,59	46627,23
635,78	46794,14
635,97	46711,91
636,17	46304,78
636,36	47003,75
636,55	46434,93
636,74	46922,75
636,93	46161,83
637,12	46588,63
637,32	46831,11
637,51	46455,10
637,70	46380,96
637,89	46782,26
638,08	46858,34
638,27	46637,06
638,47	46494,22
638,66	46764,65
638,85	46548,38
639,04	46744,99
639,23	46173,09
639,42	46397,76
639,62	46266,38
639,81	46289,93
640,00	45913,31
640,19	45637,24
640,38	45574,37
640,57	45948,12
640,76	45973,83
640,95	46365,09
641,15	46343,08
641,34	46400,01
641,53	46492,58
641,72	46339,18
641,91	46734,13
642,10	46618,32
642,29	46574,60
642,49	46878,41
642,68	46388,13
642,87	46854,76
643,06	46829,67
643,25	46832,03
643,44	46367,04
643,63	46340,72
643,82	46502,51
644,01	46548,79
644,21	46220,40
644,40	46427,14
644,59	46112,27
644,78	46522,68
644,97	45887,20
645,16	46450,39
645,35	46242,42
645,54	46813,90
645,73	46368,16
645,92	46785,23
646,12	46323,31
646,31	46304,27
646,50	46421,00
646,69	46833,97
646,88	46514,08
647,07	46570,40
647,26	46467,28
647,45	46329,15
647,64	46388,95
647,83	46805,92
648,02	46713,25
648,22	46573,68
648,41	46424,07
648,60	46417,11
648,79	46398,58
648,98	46610,44
649,17	46229,82
649,36	46507,42
649,55	46170,53
649,74	45916,69
649,93	45918,84
650,12	46203,51
650,31	46103,57
650,50	45607,65
650,69	46054,82
650,88	46139,10
651,08	45562,80
651,27	46235,25
651,46	46044,28
651,65	45917,40
651,84	45729,91
652,03	46045,51
652,22	45978,95
652,41	46337,75
652,60	46309,49
652,79	46182,00
652,98	46044,07
653,17	46159,47
653,36	46144,22
653,55	46153,43
653,74	46169,20
653,93	46332,32
654,12	45793,09
654,31	46185,79
654,50	46086,46
654,69	45943,00
654,88	45910,85
655,07	45816,85
655,26	45454,87
655,45	45616,35
655,64	45355,95
655,83	45633,35
656,02	45303,53
656,21	45189,56
656,40	44887,79
656,59	45349,81
656,78	44931,31
656,97	45019,78
657,17	45319,81
657,36	44904,38
657,55	44482,70
657,74	44966,74
657,93	44582,85
658,12	44638,45
658,31	44685,86
658,50	44829,83
658,69	44740,03
658,87	45380,84
659,06	44789,90
659,25	44987,52
659,44	45006,98
659,63	45190,79
659,82	45327,90
660,01	45200,21
660,20	45518,36
660,39	45625,36
660,58	45603,86
660,77	45211,98
660,96	45332,81
661,15	44770,85
661,34	45297,79
661,53	45227,65
661,72	44975,24
661,91	45525,01
662,10	45045,99
662,29	45386,88
662,48	44958,65
662,67	45117,47
662,86	44698,86
663,05	44970,12
663,24	45126,89
663,43	44959,57
663,62	45238,61
663,81	45474,12
664,00	45732,17
664,19	45506,17
664,38	45523,07
664,57	45295,64
664,76	45468,80
664,94	45294,82
665,13	44746,89
665,32	44684,53
665,51	45092,18
665,70	44630,56
665,89	44729,58
666,08	44630,46
666,27	44866,28
666,46	44648,48
666,65	44581,31
666,84	44832,19
667,03	44837,41
667,22	44553,56
667,41	44748,12
667,60	44679,72
667,78	44396,07
667,97	44404,67
668,16	44398,02
668,35	44406,82
668,54	43972,86
668,73	44279,44
668,92	43933,03
669,11	44209,91
669,30	43927,29
669,49	43951,76
669,68	43922,68
669,86	44230,49
670,05	44035,32
670,24	43860,83
670,43	43949,92
670,62	44093,89
670,81	44248,62
671,00	44307,29
671,19	44448,09
671,38	44201,00
671,57	44291,93
671,75	44510,55
671,94	44028,97
672,13	44096,86
672,32	43968,66
672,51	43626,55
672,70	43945,21
672,89	43342,60
673,08	43407,00
673,26	43580,37
673,45	42850,57
673,64	43173,33
673,83	42951,13
674,02	42853,34
674,21	42892,35
674,40	42946,93
674,59	42773,57
674,77	43038,78
674,96	42608,91
675,15	42667,79
675,34	42666,36
675,53	42373,70
675,72	42104,09
675,91	42439,13
676,09	42353,43
676,28	42664,82
676,47	42243,04
676,66	42583,72
676,85	42766,81
677,04	43119,57
677,22	42658,37
677,41	42821,29
677,60	42871,15
677,79	42675,98
677,98	42727,18
678,17	42520,75
678,36	42746,23
678,54	42699,23
678,73	42426,23
678,92	42502,42
679,11	42586,69
679,30	42352,20
679,48	42455,01
679,67	42270,79
679,86	42825,38
680,05	42435,86
680,24	42501,39
680,43	42306,43
680,61	42230,65
680,80	42219,39
680,99	42382,71
681,18	42123,03
681,37	42091,80
681,55	42647,00
681,74	41764,23
681,93	42151,50
682,12	41788,19
682,31	41770,27
682,49	41706,47
682,68	41755,83
682,87	42013,87
683,06	42204,74
683,25	41992,68
683,43	42579,32
683,62	42061,90
683,81	42434,94
684,00	41969,74
684,19	42215,50
684,37	42367,05
684,56	42472,41
684,75	42511,63
684,94	42782,17
685,12	42770,19
685,31	43053,22
685,50	43051,78
685,69	43106,16
685,88	42734,35
686,06	42638,50
686,25	42311,34
686,44	42470,16
686,63	42169,31
686,81	42240,28
687,00	42098,76
687,19	42085,25
687,38	41566,90
687,56	41577,86
687,75	41429,69
687,94	41543,97
688,13	41130,07
688,31	41375,42
688,50	41083,69
688,69	41115,74
688,88	41172,36
689,06	41142,46
689,25	41006,27
689,44	40943,71
689,63	40597,81
689,81	40972,28
690,00	40780,69
690,19	40757,85
690,38	40570,77
690,56	40342,63
690,75	40474,62
690,94	40090,32
691,13	40400,79
691,31	40420,35
691,50	40263,99
691,69	40260,61
691,87	40367,82
692,06	40343,86
692,25	40509,13
692,44	40518,45
692,62	40526,95
692,81	40828,51
693,00	40865,89
693,18	41126,18
693,37	41026,75
693,56	41056,96
693,75	41059,01
693,93	41411,26
694,12	41331,59
694,31	41263,29
694,49	41109,49
694,68	41446,89
694,87	40914,73
695,05	41337,63
695,24	41006,99
695,43	40793,08
695,62	40720,79
695,80	40754,58
695,99	40364,03
696,18	40293,79
696,36	40474,01
696,55	40192,62
696,74	39930,37
696,92	40145,31
697,11	40054,28
697,30	40246,48
697,48	40268,08
697,67	40490,90
697,86	39915,32
698,04	40244,12
698,23	39722,50
698,42	40109,26
698,60	39692,19
698,79	39944,40
698,98	39702,33
699,16	39978,71
699,35	40122,47
699,54	39953,21
699,72	40075,16
699,91	40435,91
700,10	40312,83
700,28	40168,65
700,47	40070,66
700,66	40242,59
700,84	39988,84
701,03	39843,85
701,21	39987,10
701,40	40298,70
701,59	39877,64
701,77	40085,92
701,96	39984,95
702,15	40085,81
702,33	40148,99
702,52	40086,74
702,71	39697,72
702,89	39964,27
703,08	39657,58
703,26	39676,53
703,45	39608,94
703,64	39368,00
703,82	39224,03
704,01	39381,01
704,20	39109,75
704,38	39306,05
704,57	38807,06
704,75	38912,33
704,94	38673,02
705,13	38809,52
705,31	38955,34
705,50	39103,81
705,68	39015,85
705,87	39152,35
706,06	38977,66
706,24	39258,23
706,43	38672,51
706,61	38672,00
706,80	38432,39
706,99	38661,55
707,17	38772,35
707,36	38893,59
707,54	38771,63
707,73	39346,91
707,92	39323,15
708,10	39068,49
708,29	38937,93
708,47	39067,15
708,66	38903,32
708,84	38882,84
709,03	38574,21
709,22	38499,05
709,40	38305,41
709,59	38474,06
709,77	38282,17
709,96	38474,88
710,14	38298,65
710,33	38429,83
710,52	38350,67
710,70	38763,13
710,89	38251,24
711,07	38541,24
711,26	38895,53
711,44	38840,14
711,63	38777,78
711,81	38889,70
712,00	38811,47
712,19	38697,60
712,37	38603,19
712,56	38825,49
712,74	38525,06
712,93	38670,87
713,11	38577,38
713,30	38673,13
713,48	38829,69
713,67	38897,07
713,85	38435,66
714,04	38601,45
714,22	38192,47
714,41	38311,35
714,59	38091,30
714,78	38187,45
714,97	37971,59
715,15	37546,13
715,34	37674,54
715,52	37841,96
715,71	37687,23
715,89	37440,96
716,08	37655,69
716,26	37589,14
716,45	37454,28
716,63	38142,19
716,82	37454,58
717,00	38010,20
717,19	37892,34
717,37	38179,26
717,56	38070,41
717,74	38192,06
717,93	38098,98
718,11	38002,62
718,30	37627,94
718,48	37800,79
718,67	37610,33
718,85	37387,00
719,04	37188,86
719,22	37428,37
719,41	37285,52
719,59	37377,38
719,78	36891,49
719,96	36948,12
720,15	37088,30
720,33	37443,01
720,52	36874,60
720,70	37001,88
720,88	36926,11
721,07	37215,79
721,25	37158,86
721,44	37294,94
721,62	36731,86
721,81	37188,86
721,99	36616,66
722,18	36674,00
722,36	36882,69
722,55	36876,95
722,73	36496,95
722,92	36829,75
723,10	36627,10
723,28	36816,33
723,47	36180,95
723,65	36422,82
723,84	36408,69
724,02	36464,39
724,21	36279,36
724,39	36482,31
724,58	36273,42
724,76	36839,68
724,94	36258,67
725,13	36661,71
725,31	36129,34
725,50	36374,38
725,68	36313,15
725,87	36106,00
726,05	35829,11
726,23	35874,88
726,42	35705,11
726,60	35900,89
726,79	35796,24
726,97	35834,64
727,16	35403,34
727,34	35794,60
727,52	35569,53
727,71	35613,05
727,89	35631,58
728,08	35880,41
728,26	35917,28
728,44	35710,33
728,63	35993,87
728,81	35451,98
729,00	35311,08
729,18	35467,44
729,36	35203,46
729,55	35007,67
729,73	34948,69
729,92	34838,92
730,10	34290,16
730,28	35200,49
730,47	34829,70
730,65	35137,20
730,84	34934,66
731,02	35061,74
731,20	35060,10
731,39	35216,36
731,57	35136,80
731,75	36024,79
731,94	35423,92
732,12	35614,69
732,31	35049,96
732,49	35616,63
732,67	35180,62
732,86	35136,69
733,04	34886,43
733,22	35133,31
733,41	34637,40
733,59	35030,71
733,78	34570,12
733,96	34382,53
734,14	34753,62
734,33	34674,67
734,51	34356,11
734,69	34362,46
734,88	34178,04
735,06	34489,53
735,24	34168,21
735,43	34279,52
735,61	34194,52
735,79	33884,56
735,98	33754,72
736,16	33971,71
736,34	33647,20
736,53	33946,00
736,71	33624,78
736,89	33791,07
737,08	33373,49
737,26	33833,67
737,44	33549,31
737,63	33757,49
737,81	33845,35
737,99	33977,34
738,18	33905,35
738,36	34164,11
738,54	33908,01
738,73	34304,91
738,91	34306,55
739,09	34780,76
739,28	34285,04
739,46	34566,95
739,64	34721,26
739,82	34390,00
740,01	34091,82
740,19	34343,92
740,37	33882,62
740,56	33765,99
740,74	33902,18
740,92	33724,11
741,11	34021,78
741,29	33995,15
741,47	33830,91
741,65	33750,12
741,84	34054,65
742,02	33949,38
742,20	33912,11
742,39	33654,48
742,57	33900,33
742,75	33906,07
742,93	33668,71
743,12	33513,88
743,30	33229,01
743,48	33455,41
743,67	33283,08
743,85	33299,97
744,03	33252,05
744,21	33157,95
744,40	33003,53
744,58	33136,34
744,76	32902,05
744,94	32906,15
745,13	32928,06
745,31	32966,26
745,49	32471,77
745,67	32759,21
745,86	32590,04
746,04	32748,35
746,22	32355,04
746,40	32266,36
746,59	32135,19
746,77	32544,07
746,95	32355,86
747,13	32461,12
747,32	32183,01
747,50	32495,32
747,68	32162,94
747,86	32264,83
748,05	32074,26
748,23	32267,08
748,41	32000,64
748,59	32122,19
748,77	31858,10
748,96	32117,17
749,14	31757,65
749,32	32216,80
749,50	32159,15
749,69	32141,54
749,87	31735,84
750,05	31985,69
750,23	31873,66
750,41	31929,98
750,60	31982,51
750,78	32142,46
750,96	31840,18
751,14	31714,23
751,32	31664,57
751,51	31624,94
751,69	31384,71
751,87	31016,18
752,05	31254,05
752,23	31122,98
752,42	30851,01
752,60	31028,77
752,78	30777,39
752,96	31128,61
753,14	31038,81
753,33	31302,69
753,51	31089,29
753,69	31386,96
753,87	31082,84
754,05	31446,25
754,23	30917,98
754,42	31210,43
754,60	30719,94
754,78	31069,84
754,96	30543,00
755,14	30696,70
755,32	30334,51
755,51	30704,38
755,69	30491,18
755,87	30839,64
756,05	30692,40
756,23	31165,58
756,41	30924,23
756,60	31332,69
756,78	31288,66
756,96	31209,10
757,14	31195,58
757,32	31414,30
757,50	31340,48
757,68	31201,73
757,87	31276,78
758,05	31509,43
758,23	31245,35
758,41	31490,80
758,59	31123,19
758,77	31480,15
758,95	31335,56
759,14	31044,44
759,32	31255,38
759,50	31541,59
759,68	31314,47
759,86	31635,69
760,04	31782,94
760,22	31776,69
760,40	31938,99
760,59	32239,12
760,77	32055,42
760,95	32495,32
761,13	32224,79
761,31	32183,11
761,49	32490,72
761,67	32957,55
761,85	32545,70
762,03	32844,40
762,22	33054,22
762,40	33371,24
762,58	33261,16
762,76	33596,01
762,94	33598,67
763,12	33658,26
763,30	33805,82
763,48	33730,86
763,66	33554,23
763,84	33963,51
764,02	33878,93
764,21	33935,66
764,39	34054,34
764,57	34200,26
764,75	34144,96
764,93	34138,62
765,11	34097,96
765,29	34636,99
765,47	34440,38
765,65	34491,79
765,83	34397,27
766,01	34628,59
766,19	34847,72
766,37	34842,09
766,56	34658,29
766,74	35139,97
766,92	34644,05
767,10	34825,81
767,28	34886,53
767,46	34928,52
767,64	35031,84
767,82	35154,20
768,00	34861,55
768,18	35153,79
768,36	35024,46
768,54	34928,21
768,72	35012,89
768,90	35125,94
769,08	34883,46
769,26	35025,28
769,44	34954,42
769,62	35120,31
769,80	34745,33
769,98	35125,94
770,16	34857,86
770,34	34775,84
770,52	34692,18
770,71	34708,87
770,89	34639,75
771,07	34830,01
771,25	34365,63
771,43	34800,31
771,61	34643,34
771,79	34535,20
771,97	34481,04
772,15	34472,23
772,33	34100,42
772,51	34030,69
772,69	34005,09
772,87	33964,64
773,05	33898,18
773,23	34270,40
773,41	33839,10
773,59	34087,52
773,77	33701,99
773,95	33974,37
774,13	33354,24
774,31	33641,37
774,49	33141,66
774,67	33091,08
774,85	32824,43
775,03	32560,66
775,21	32283,77
775,39	32654,76
775,57	32166,32
775,75	32352,99
775,93	32142,77
776,10	32111,33
776,28	31817,45
776,46	31748,43
776,64	31506,36
776,82	31662,62
777,00	31495,61
777,18	31080,28
777,36	30600,65
777,54	30983,41
777,72	30238,77
777,90	30376,09
778,08	30173,34
778,26	30040,53
778,44	29955,43
778,62	29758,42
778,80	29650,08
778,98	29616,09
779,16	29203,01
779,34	29114,33
779,52	28903,70
779,70	29150,17
779,88	28665,52
780,05	28911,69
780,23	28504,55
780,41	28953,16
780,59	28651,39
780,77	28722,76
780,95	28675,15
781,13	28554,73
781,31	28439,94
781,49	28183,74
781,67	28029,93
781,85	28200,32
782,03	27888,42
782,21	27961,12
782,39	28011,19
782,56	27784,28
782,74	27709,32
782,92	27951,09
783,10	27763,60
783,28	27650,55
783,46	27631,91
783,64	27653,93
783,82	27525,83
784,00	27495,21
784,18	27339,05
784,35	27415,44
784,53	27179,21
784,71	27175,83
784,89	27093,19
785,07	26988,54
785,25	26997,35
785,43	27071,07
785,61	26530,92
785,79	26873,04
785,96	26400,57
786,14	26342,20
786,32	26381,83
786,50	26372,92
786,68	26081,80
786,86	26154,40
787,04	26163,42
787,22	26168,13
787,39	26012,89
787,57	26207,75
787,75	25989,44
787,93	25911,00
788,11	25819,97
788,29	25763,04
788,47	25524,24
788,65	25594,18
788,82	25204,86
789,00	25519,84
789,18	25105,74
789,36	25266,40
789,54	24903,71
789,72	25011,33
789,89	24898,79
790,07	25017,88
790,25	24996,07
790,43	25018,09
790,61	24870,84
790,79	24821,18
790,96	24647,51
791,14	24624,67
791,32	24259,01
791,50	24574,19
791,68	24167,26
791,86	24290,34
792,03	23986,73
792,21	24428,99
792,39	24283,69
792,57	24560,27
792,75	24132,75
792,93	24626,31
793,10	24239,25
793,28	24470,97
793,46	24365,81
793,64	24552,18
793,82	24280,51
793,99	24628,97
794,17	24170,84
794,35	24349,32
794,53	24007,72
794,71	23871,23
794,88	23618,61
795,06	23673,80
795,24	23445,35
795,42	23503,72
795,60	23258,17
795,77	23225,60
795,95	22967,05
796,13	23095,76
796,31	22820,82
796,49	23013,84
796,66	22724,47
796,84	22760,20
797,02	22658,01
797,20	22733,48
797,37	22678,69
797,55	22747,40
797,73	22376,21
797,91	22446,56
798,08	22268,79
798,26	22279,65
798,44	22026,11
798,62	22100,45
798,80	22131,99
798,97	22197,93
799,15	21906,10
799,33	22077,62
799,51	22073,93
799,68	22064,10
799,86	22091,23
800,04	21808,31
800,22	21620,00
800,39	21650,31
800,57	21509,61
800,75	21552,82
800,93	21340,45
801,10	21458,72
801,28	21249,11
801,46	21178,35
801,63	21193,51
801,81	21244,71
801,99	20986,97
802,17	20966,18
802,34	20719,10
802,52	20770,50
802,70	20643,93
802,88	20689,50
803,05	20553,82
803,23	20644,04
803,41	20450,71
803,58	20689,50
803,76	20689,09
803,94	20974,17
804,12	20990,55
804,29	20906,89
804,47	20688,27
804,65	20711,62
804,82	20396,54
805,00	20435,35
805,18	20537,75
805,35	20600,93
805,53	20316,77
805,71	20437,70
805,89	20462,59
806,06	20241,10
806,24	20104,81
806,42	20160,92
806,59	19838,47
806,77	20057,19
806,95	19664,08
807,12	19756,34
807,30	19621,90
807,48	19609,92
807,65	19417,20
807,83	19590,46
808,01	19371,94
808,18	19748,15
808,36	19538,03
808,54	19671,76
808,71	19419,86
808,89	19576,33
809,07	19468,50
809,24	19530,25
809,42	19570,08
809,60	19561,17
809,77	19395,90
809,95	19447,51
810,13	19404,71
810,30	19530,35
810,48	19389,04
810,66	19480,07
810,83	19314,29
811,01	19292,48
811,18	18961,53
811,36	19034,03
811,54	18841,21
811,71	18905,62
811,89	18818,07
812,07	18752,53
812,24	18765,95
812,42	18797,69
812,59	18646,35
812,77	18647,68
812,95	18682,08
813,12	18685,87
813,30	18522,14
813,48	18517,94
813,65	18295,02
813,83	18298,91
814,00	18084,18
814,18	18063,60
814,36	18169,58
814,53	18142,85
814,71	18058,78
814,88	18036,67
815,06	17904,78
815,24	17990,59
815,41	17925,87
815,59	17893,92
815,76	17627,79
815,94	17788,96
816,12	17557,44
816,29	17686,77
816,47	17603,42
816,64	17728,75
816,82	17595,23
817,00	17721,18
817,17	17445,52
817,35	17695,37
817,52	17411,32
817,70	17558,06
817,87	17295,10
818,05	17346,70
818,23	17108,63
818,40	17362,17
818,58	17112,01
818,75	17260,79
818,93	17021,08
819,10	17212,36
819,28	16841,78
819,46	16989,23
819,63	16833,07
819,81	16831,33
819,98	16719,62
820,16	16746,55
820,33	16581,89
820,51	16732,11
820,68	16564,38
820,86	16522,91
821,03	16329,38
821,21	16165,74
821,39	16343,00
821,56	16453,18
821,74	16215,00
821,91	16396,04
822,09	16297,12
822,26	16190,83
822,44	16059,76
822,61	16070,41
822,79	15948,04
822,96	16037,34
823,14	15918,76
823,31	15884,56
823,49	15900,53
823,66	15863,67
823,84	15695,53
824,01	15791,17
824,19	15671,77
824,36	15838,68
824,54	15819,02
824,71	15546,13
824,89	15612,69
825,06	15583,20
825,24	15522,68
825,41	15607,77
825,59	15404,31
825,76	15549,20
825,94	15374,51
826,11	15541,63
826,29	15434,82
826,46	15368,57
826,64	15359,15
826,81	15196,64
826,99	15075,30
827,16	14985,60
827,34	14954,78
827,51	14908,09
827,69	14734,52
827,86	14848,18
828,04	14850,13
828,21	14919,45
828,39	14781,73
828,56	14742,41
828,74	14523,38
828,91	14676,56
829,09	14722,44
829,26	14638,78
829,43	14563,00
829,61	14531,67
829,78	14330,15
829,96	14553,79
830,13	14338,55
830,31	14502,49
830,48	14231,85
830,66	14404,59
830,83	14241,47
831,01	14314,99
831,18	14290,11
831,35	14272,50
831,53	14186,28
831,70	14370,29
831,88	14224,68
832,05	14275,67
832,23	14141,84
832,40	14215,67
832,57	14203,89
832,75	14129,24
832,92	13905,71
833,10	14250,38
833,27	14063,30
833,45	14027,97
833,62	13973,60
833,79	14097,50
833,97	14004,22
834,14	13801,47
834,32	13688,93
834,49	13584,28
834,66	13509,43
834,84	13482,90
835,01	13406,00
835,19	13408,97
835,36	13257,22
835,53	13403,85
835,71	13353,88
835,88	13330,13
836,06	13184,11
836,23	13204,28
836,40	13019,86
836,58	13138,13
836,75	12966,51
836,93	13040,65
837,10	12877,42
837,27	12844,86
837,45	12818,75
837,62	12718,40
837,79	12669,25
837,97	12819,36
838,14	12655,22
838,32	12789,56
838,49	12602,89
838,66	12692,18
838,84	12582,31
839,01	12539,61
839,18	12508,79
839,36	12508,17
839,53	12297,64
839,70	12372,80
839,88	12280,85
840,05	12354,68
840,23	12140,97
840,40	12211,12
840,57	12144,66
840,75	12068,58
840,92	11961,16
841,09	11943,34
841,27	11940,07
841,44	11871,15
841,61	11898,80
841,79	11809,71
841,96	11725,44
842,13	11690,73
842,31	11660,21
842,48	11600,10
842,65	11733,43
842,83	11763,02
843,00	11537,13
843,17	11662,47
843,35	11618,33
843,52	11565,19
843,69	11429,20
843,86	11624,78
844,04	11469,34
844,21	11460,64
844,38	11486,75
844,56	11490,85
844,73	11400,84
844,90	11471,18
845,08	11371,24
845,25	11512,25
845,42	11347,18
845,60	11413,53
845,77	11274,38
845,94	11226,96
846,11	11220,31
846,29	11219,49
846,46	11118,01
846,63	11144,23
846,81	11097,23
846,98	11041,83
847,15	11050,12
847,32	11060,16
847,50	10959,91
847,67	10951,00
847,84	10847,89
848,01	10987,05
848,19	10792,18
848,36	10829,04
848,53	10815,73
848,71	10809,79
848,88	10737,50
849,05	10823,11
849,22	10783,78
849,40	10870,72
849,57	10834,27
849,74	10798,12
849,91	10717,63
850,09	10660,39
850,26	10697,16
850,43	10771,70
850,60	10537,52
850,78	10679,95
850,95	10540,38
851,12	10513,76
851,29	10382,18
851,47	10383,92
851,64	10204,93
851,81	10221,82
851,98	10191,31
852,15	10181,27
852,33	9995,93
852,50	10014,06
852,67	9945,76
852,84	10004,74
853,02	9894,25
853,19	9876,53
853,36	9716,18
853,53	9686,28
853,70	9742,90
853,88	9766,87
854,05	9587,46
854,22	9582,65
854,39	9548,04
854,56	9639,69
854,74	9508,82
854,91	9690,17
855,08	9517,01
855,25	9505,54
855,42	9582,14
855,60	9654,53
855,77	9565,75
855,94	9596,78
856,11	9478,51
856,28	9553,16
856,46	9451,89
856,63	9436,43
856,80	9408,27
856,97	9388,71
857,14	9242,79
857,31	9215,86
857,49	9139,88
857,66	9113,87
857,83	8938,05
858,00	8928,43
858,17	8873,34
858,34	8828,69
858,52	8754,66
858,69	8740,32
858,86	8658,20
859,03	8752,30
859,20	8625,84
859,37	8641,10
859,55	8482,58
859,72	8547,30
859,89	8417,05
860,06	8464,56
860,23	8414,08
860,40	8439,17
860,57	8327,96
860,75	8344,14
860,92	8275,74
861,09	8308,51
861,26	8236,93
861,43	8177,13
861,60	8110,98
861,77	8122,96
861,95	8008,79
862,12	8095,62
862,29	7976,74
862,46	8037,25
862,63	7871,98
862,80	8023,94
862,97	7978,78
863,14	7989,33
863,31	8032,44
863,49	8065,62
863,66	8078,11
863,83	8095,21
864,00	8068,79
864,17	8040,33
864,34	7944,69
864,51	7986,05
864,68	7898,09
864,85	7953,49
865,02	7853,65
865,20	7911,82
865,37	7811,16
865,54	7826,21
865,71	7724,22
865,88	7793,14
866,05	7678,65
866,22	7719,72
866,39	7654,59
866,56	7690,02
866,73	7606,98
866,90	7649,06
867,07	7566,43
867,25	7514,61
867,42	7443,14
867,59	7420,20
867,76	7314,12
867,93	7412,73
868,10	7288,21
868,27	7335,11
868,44	7240,59
868,61	7250,63
868,78	7144,44
868,95	7122,02
869,12	7141,98
869,29	7144,95
869,46	7127,55
869,63	7116,49
869,80	7062,73
869,97	7152,74
870,14	7097,13
870,32	7093,45
870,49	7105,12
870,66	7108,50
870,83	7005,59
871,00	7038,36
871,17	6936,27
871,34	6940,16
871,51	6799,26
871,68	6834,38
871,85	6816,56
872,02	6805,60
872,19	6688,05
872,36	6712,42
872,53	6645,45
872,70	6660,81
872,87	6614,94
873,04	6577,05
873,21	6559,23
873,38	6586,17
873,55	6526,26
873,72	6535,89
873,89	6537,32
874,06	6503,84
874,23	6441,89
874,40	6395,50
874,57	6423,35
874,74	6377,78
874,91	6300,88
875,08	6309,59
875,25	6240,78
875,42	6249,38
875,59	6136,02
875,76	6135,51
875,93	6047,24
876,10	6014,68
876,27	5940,65
876,44	5986,42
876,61	5891,80
876,78	5978,02
876,95	5959,59
877,12	5983,14
877,29	5898,46
877,46	5869,79
877,62	5835,38
877,79	5852,28
877,96	5867,23
878,13	5859,96
878,30	5795,24
878,47	5831,69
878,64	5826,57
878,81	5833,13
878,98	5797,49
879,15	5797,19
879,32	5738,41
879,49	5763,39
879,66	5693,35
879,83	5698,78
880,00	5677,89
880,17	5684,55
880,34	5645,53
880,51	5628,53
880,67	5636,93
880,84	5591,47
881,01	5559,93
881,18	5582,46
881,35	5492,45
881,52	5557,68
881,69	5436,74
881,86	5467,05
882,03	5446,68
882,20	5405,82
882,37	5356,67
882,54	5423,43
882,70	5321,24
882,87	5284,89
883,04	5328,71
883,21	5295,13
883,38	5276,18
883,55	5293,28
883,72	5240,65
883,89	5244,44
884,06	5181,26
884,23	5176,55
884,39	5088,90
884,56	5198,77
884,73	5122,48
884,90	5111,01
885,07	5091,76
885,24	5100,47
885,41	5044,97
885,58	5026,02
885,74	4950,45
885,91	4957,52
886,08	4907,96
886,25	4935,40
886,42	4855,53
886,59	4825,63
886,76	4760,71
886,93	4795,93
887,09	4751,80
887,26	4756,31
887,43	4651,35
887,60	4726,92
887,77	4604,35
887,94	4644,38
888,10	4611,82
888,27	4617,76
888,44	4581,82
888,61	4557,24
888,78	4535,43
888,95	4528,78
889,12	4513,21
889,28	4542,39
889,45	4476,96
889,62	4436,72
889,79	4437,95
889,96	4416,96
890,13	4370,06
890,29	4410,92
890,46	4375,18
890,63	4364,12
890,80	4346,51
890,97	4361,46
891,13	4292,54
891,30	4308,62
891,47	4312,00
891,64	4301,04
891,81	4242,37
891,98	4298,48
892,14	4239,09
892,31	4233,87
892,48	4232,23
892,65	4208,99
892,82	4148,98
892,98	4158,30
893,15	4125,33
893,32	4141,91
>>>>>End Processed Spectral Data<<<<<
