SpectraSuite Datei
++++++++++++++++++++++++++++++++++++
Datum: Mon Mar 09 11:53:54 CET 2020
Benutzer: Lichtquellen1
Dark-Spektrum vorhanden: Nein
Referenz-Spektrum vorhanden: Nein
Zahl der probierten Teilspektren: 1
Spektrometer: USB4F05832
Integrationszeit (usec): 200000 (USB4F05832)
Spektren Durchschnitt berechnet: 5 (USB4F05832)
Boxcar Glättung: 0 (USB4F05832)
Dunkelstromkorrektur: Nein (USB4F05832)
Puls/Lampe aktiviert: Nein (USB4F05832)
Correct for Detector Non-linearity: Nein (USB4F05832)
Streulichtkorrektur: Nein (USB4F05832)
Anzahl Pixel in verarbeitetem Spektrum: 3648
>>>>>Begin Processed Spectral Data<<<<<
177,54	1360,67
177,75	1360,67
177,97	1360,67
178,19	1383,20
178,41	1345,93
178,63	1725,21
178,85	1513,04
179,07	1600,28
179,29	1676,06
179,51	1516,73
179,73	1683,43
179,95	1616,67
180,17	1627,73
180,39	1802,21
180,61	1729,30
180,83	1795,25
181,05	1599,46
181,27	1655,58
181,49	1629,36
181,71	1658,85
181,92	1938,61
182,14	1701,86
182,36	1633,87
182,58	1788,29
182,80	1639,60
183,02	1825,97
183,24	1769,85
183,46	1712,10
183,68	1655,58
183,90	1733,40
184,12	1621,99
184,34	1723,16
184,56	1639,19
184,78	1647,39
185,00	1663,36
185,21	1816,55
185,43	1622,81
185,65	1691,21
185,87	1653,12
186,09	1832,93
186,31	1671,96
186,53	1698,99
186,75	1764,94
186,97	1789,52
187,19	1816,96
187,41	1583,08
187,63	1787,47
187,84	1585,54
188,06	1727,26
188,28	1662,95
188,50	1723,16
188,72	1816,14
188,94	1724,39
189,16	1623,22
189,38	1646,98
189,60	1744,87
189,82	1658,45
190,03	1736,27
190,25	1665,41
190,47	1737,09
190,69	1667,87
190,91	1603,56
191,13	1681,79
191,35	1832,52
191,57	1657,22
191,79	1700,22
192,01	1726,03
192,22	1818,60
192,44	1658,45
192,66	1738,32
192,88	1707,60
193,10	1693,26
193,32	1619,53
193,54	1854,23
193,76	1831,29
193,98	1646,57
194,19	1759,21
194,41	1686,71
194,63	1630,18
194,85	1680,97
195,07	1793,61
195,29	1568,33
195,51	1733,81
195,73	1645,75
195,94	1646,98
196,16	1684,66
196,38	1859,15
196,60	1671,96
196,82	1640,42
197,04	1670,32
197,26	1619,53
197,48	1649,84
197,69	1700,22
197,91	1601,92
198,13	1671,14
198,35	1658,85
198,57	1665,41
198,79	1786,24
199,01	1751,01
199,22	1701,04
199,44	1785,83
199,66	1697,36
199,88	1721,93
200,10	1780,91
200,32	1746,92
200,54	1760,43
200,75	1860,37
200,97	1640,42
201,19	1778,05
201,41	1782,55
201,63	1689,57
201,85	1656,40
202,06	1787,88
202,28	1668,28
202,50	1678,52
202,72	1544,58
202,94	1616,67
203,16	1621,99
203,38	1694,49
203,59	1680,56
203,81	1807,13
204,03	1571,20
204,25	1737,09
204,47	1846,04
204,69	1677,29
204,90	1663,77
205,12	1718,66
205,34	1712,10
205,56	1697,77
205,78	1628,14
206,00	1886,59
206,21	1754,70
206,43	1665,00
206,65	1697,36
206,87	1644,52
207,09	1738,73
207,30	1620,35
207,52	1754,29
207,74	1753,47
207,96	1655,17
208,18	1660,49
208,40	1657,22
208,61	1668,28
208,83	1708,42
209,05	1602,74
209,27	1563,42
209,49	1756,34
209,70	1753,06
209,92	1746,51
210,14	1610,11
210,36	1648,61
210,58	1742,41
210,79	1694,08
211,01	1593,32
211,23	1753,06
211,45	1774,36
211,67	1692,03
211,88	1574,07
212,10	1757,98
212,32	1609,29
212,54	1671,14
212,76	1698,18
212,97	1578,57
213,19	1596,19
213,41	1794,43
213,63	1612,16
213,85	1643,70
214,06	1597,83
214,28	1823,92
214,50	1647,39
214,72	1732,58
214,94	1736,68
215,15	1645,34
215,37	1648,21
215,59	1654,76
215,81	1800,98
216,02	1683,43
216,24	1737,91
216,46	1592,50
216,68	1719,88
216,90	1718,66
217,11	1741,18
217,33	1622,81
217,55	1834,16
217,77	1719,47
217,98	1793,61
218,20	1732,99
218,42	1792,79
218,64	1685,48
218,85	1866,11
219,07	1724,80
219,29	1705,96
219,51	1745,28
219,73	1673,19
219,94	1656,40
220,16	1840,71
220,38	1762,07
220,60	1678,52
220,81	1598,64
221,03	1578,16
221,25	1730,94
221,47	1574,07
221,68	1663,36
221,90	1728,90
222,12	1678,11
222,34	1723,98
222,55	1749,37
222,77	1805,49
222,99	1692,85
223,21	1745,28
223,42	1780,91
223,64	1754,70
223,86	1658,04
224,08	1697,36
224,29	1805,08
224,51	1696,95
224,73	1716,61
224,94	1738,73
225,16	1679,74
225,38	1674,01
225,60	1715,79
225,81	1651,07
226,03	1682,20
226,25	1569,15
226,47	1711,69
226,68	1766,17
226,90	1693,26
227,12	1726,44
227,33	1727,26
227,55	1667,05
227,77	1640,83
227,99	1821,05
228,20	1618,30
228,42	1728,08
228,64	1696,95
228,86	1704,32
229,07	1670,32
229,29	1585,95
229,51	1499,52
229,72	1794,02
229,94	1671,14
230,16	1729,71
230,38	1615,03
230,59	1645,75
230,81	1817,37
231,03	1733,81
231,24	1674,01
231,46	1660,49
231,68	1639,60
231,89	1686,71
232,11	1635,92
232,33	1829,25
232,55	1667,46
232,76	1728,49
232,98	1675,24
233,20	1651,07
233,41	1606,02
233,63	1680,15
233,85	1680,15
234,06	1652,71
234,28	1748,56
234,50	1617,90
234,71	1718,25
234,93	1828,43
235,15	1744,46
235,37	1565,06
235,58	1667,46
235,80	1622,40
236,02	1610,52
236,23	1696,54
236,45	1641,65
236,67	1743,64
236,88	1694,08
237,10	1765,76
237,32	1762,89
237,53	1744,87
237,75	1658,85
237,97	1564,65
238,18	1647,80
238,40	1708,01
238,62	1668,68
238,83	1675,65
239,05	1658,04
239,27	1684,66
239,48	1599,05
239,70	1642,88
239,92	1814,50
240,13	1814,09
240,35	1657,22
240,57	1678,11
240,78	1720,29
241,00	1579,39
241,22	1656,40
241,43	1822,69
241,65	1677,29
241,87	1833,34
242,08	1882,90
242,30	1622,40
242,52	1682,61
242,73	1756,75
242,95	1608,88
243,16	1701,04
243,38	1829,66
243,60	1720,29
243,81	1703,50
244,03	1759,21
244,25	1574,07
244,46	1660,49
244,68	1615,03
244,90	1735,04
245,11	1639,60
245,33	1703,91
245,55	1712,10
245,76	1661,31
245,98	1604,79
246,19	1850,95
246,41	1805,08
246,63	1750,60
246,84	1801,39
247,06	1728,90
247,28	1740,77
247,49	1730,53
247,71	1606,84
247,92	1742,82
248,14	1832,93
248,36	1703,91
248,57	1767,40
248,79	1807,54
249,01	1646,98
249,22	1721,11
249,44	1744,87
249,65	1669,09
249,87	1710,05
250,09	1754,29
250,30	1740,77
250,52	1683,84
250,73	1778,05
250,95	1623,63
251,17	1724,80
251,38	1666,23
251,60	1635,51
251,81	1799,75
252,03	1853,82
252,25	1587,59
252,46	1637,56
252,68	1795,66
252,89	1739,14
253,11	1693,67
253,33	1709,23
253,54	1583,90
253,76	1726,85
253,97	1792,38
254,19	1756,75
254,41	1612,57
254,62	1791,15
254,84	1760,43
255,05	1720,29
255,27	1760,02
255,49	1825,97
255,70	1799,35
255,92	1681,79
256,13	1628,54
256,35	1739,95
256,56	1813,68
256,78	1766,17
257,00	1747,33
257,21	1674,01
257,43	1631,82
257,64	1764,94
257,86	1802,21
258,08	1730,53
258,29	1838,67
258,51	1668,28
258,72	1737,50
258,94	1814,91
259,15	1744,46
259,37	1715,38
259,59	1593,32
259,80	1748,56
260,02	1669,09
260,23	1704,73
260,45	1627,32
260,66	1721,52
260,88	1707,19
261,09	1675,65
261,31	1662,54
261,53	1818,19
261,74	1802,21
261,96	1527,38
262,17	1612,16
262,39	1745,69
262,60	1715,79
262,82	1701,45
263,03	1647,39
263,25	1735,04
263,46	1658,85
263,68	1731,35
263,90	1743,64
264,11	1620,76
264,33	1832,52
264,54	1767,40
264,76	1694,08
264,97	1785,83
265,19	1632,23
265,40	1790,33
265,62	1667,05
265,83	1774,77
266,05	1699,40
266,26	1623,22
266,48	1820,64
266,70	1805,90
266,91	1599,87
267,13	1737,91
267,34	1648,61
267,56	1741,18
267,77	1679,33
267,99	1648,61
268,20	1814,91
268,42	1705,14
268,63	1611,34
268,85	1914,03
269,06	1840,71
269,28	1749,37
269,49	1712,51
269,71	1743,23
269,92	1644,93
270,14	1588,81
270,35	1663,36
270,57	1742,82
270,78	1735,45
271,00	1693,67
271,21	1909,53
271,43	1641,65
271,64	1666,23
271,86	1853,41
272,07	1604,38
272,29	1896,01
272,50	1647,80
272,72	1786,24
272,93	1791,56
273,15	1812,86
273,36	1754,70
273,58	1710,05
273,79	1702,27
274,01	1723,57
274,22	1652,71
274,44	1726,44
274,65	1732,58
274,87	1788,29
275,08	1708,83
275,30	1770,26
275,51	1930,01
275,73	1870,21
275,94	1649,84
276,16	1649,84
276,37	1688,76
276,59	1705,14
276,80	1747,33
277,02	1775,59
277,23	1654,76
277,45	1729,30
277,66	1521,23
277,88	1747,33
278,09	1870,21
278,30	1748,56
278,52	1625,68
278,73	1887,00
278,95	1696,95
279,16	1856,28
279,38	1753,47
279,59	1706,37
279,81	1687,94
280,02	1704,73
280,24	1637,97
280,45	1746,51
280,67	1832,52
280,88	1786,24
281,09	1631,41
281,31	1642,06
281,52	1707,19
281,74	1878,81
281,95	1694,08
282,17	1708,42
282,38	1780,91
282,60	1692,44
282,81	1774,36
283,02	1653,53
283,24	1653,12
283,45	1818,19
283,67	1617,49
283,88	1769,04
284,10	1644,52
284,31	1767,40
284,53	1670,32
284,74	1693,67
284,95	1714,56
285,17	1688,35
285,38	1664,59
285,60	1661,72
285,81	1640,83
286,03	1742,82
286,24	1786,24
286,45	1796,89
286,67	1748,97
286,88	1719,06
287,10	1786,65
287,31	1573,25
287,53	1744,46
287,74	1767,40
287,95	1648,21
288,17	1794,43
288,38	1748,15
288,60	1658,85
288,81	1660,90
289,02	1658,45
289,24	1852,59
289,45	1705,96
289,67	1791,97
289,88	1684,66
290,10	1735,04
290,31	1768,63
290,52	1688,35
290,74	1742,00
290,95	1769,04
291,17	1780,91
291,38	1646,98
291,59	1668,28
291,81	1676,47
292,02	1716,61
292,24	1782,96
292,45	1760,02
292,66	1755,93
292,88	1801,80
293,09	1724,80
293,31	1719,06
293,52	1695,72
293,73	1617,49
293,95	1706,78
294,16	1783,78
294,37	1774,36
294,59	1801,39
294,80	1846,45
295,02	1670,32
295,23	1584,31
295,44	1758,80
295,66	1647,80
295,87	1763,71
296,09	1684,66
296,30	1737,50
296,51	1662,13
296,73	1654,76
296,94	1661,72
297,15	1671,14
297,37	1621,17
297,58	1681,79
297,79	1721,11
298,01	1745,69
298,22	1775,59
298,44	1655,99
298,65	1705,96
298,86	1784,60
299,08	1628,14
299,29	1723,98
299,50	1684,25
299,72	1678,52
299,93	1784,19
300,14	1761,66
300,36	1597,42
300,57	1621,17
300,79	1688,35
301,00	1788,70
301,21	1557,69
301,43	1678,11
301,64	1676,47
301,85	1672,37
302,07	1776,00
302,28	1688,35
302,49	1812,45
302,71	1691,62
302,92	1788,70
303,13	1778,87
303,35	1704,73
303,56	1756,34
303,77	1575,71
303,99	1684,66
304,20	1745,69
304,41	1658,04
304,63	1667,46
304,84	1748,15
305,05	1760,43
305,27	1774,77
305,48	1803,03
305,69	1690,39
305,91	1766,99
306,12	1709,23
306,33	1725,62
306,55	1694,08
306,76	1706,37
306,97	1677,29
307,19	1714,56
307,40	1819,42
307,61	1780,91
307,82	1641,24
308,04	1781,32
308,25	1749,37
308,46	1727,67
308,68	1726,85
308,89	1792,79
309,10	1702,27
309,32	1678,52
309,53	1647,39
309,74	1752,24
309,96	1718,66
310,17	1669,09
310,38	1659,26
310,59	1731,35
310,81	1717,43
311,02	1717,43
311,23	1748,97
311,45	1716,61
311,66	1696,13
311,87	1713,74
312,09	1860,37
312,30	1684,66
312,51	1770,26
312,72	1747,33
312,94	1800,57
313,15	1688,35
313,36	1768,63
313,58	1647,80
313,79	1807,54
314,00	1709,64
314,21	1596,60
314,43	1730,53
314,64	1685,89
314,85	1631,00
315,06	1687,53
315,28	1820,23
315,49	1767,40
315,70	1695,72
315,92	1833,75
316,13	1900,92
316,34	1794,43
316,55	1742,82
316,77	1633,87
316,98	1823,92
317,19	1681,38
317,40	1541,30
317,62	1640,42
317,83	1818,60
318,04	1637,97
318,25	1671,55
318,47	1667,05
318,68	1724,80
318,89	1790,74
319,11	1722,34
319,32	1734,63
319,53	1786,65
319,74	1751,83
319,96	1753,88
320,17	1719,47
320,38	1576,94
320,59	1837,03
320,81	1748,15
321,02	1718,25
321,23	1673,60
321,44	1814,91
321,65	1707,60
321,87	1726,03
322,08	1837,03
322,29	1710,87
322,50	1646,98
322,72	1711,69
322,93	1663,77
323,14	1655,58
323,35	1682,20
323,57	1774,77
323,78	1752,24
323,99	1728,08
324,20	1793,61
324,41	1659,26
324,63	1786,65
324,84	1697,77
325,05	1716,61
325,26	1749,78
325,48	1722,34
325,69	1730,12
325,90	1732,99
326,11	1680,56
326,32	1711,28
326,54	1756,34
326,75	1696,13
326,96	1680,56
327,17	1773,95
327,39	1780,09
327,60	1741,18
327,81	1691,21
328,02	1710,05
328,23	1693,26
328,45	1766,58
328,66	1682,61
328,87	1749,78
329,08	1791,56
329,29	1742,00
329,51	1694,08
329,72	1667,05
329,93	1735,45
330,14	1674,42
330,35	1739,95
330,56	1645,75
330,78	1762,07
330,99	1721,11
331,20	1789,11
331,41	1817,78
331,62	1622,81
331,84	1699,40
332,05	1697,36
332,26	1786,24
332,47	1743,64
332,68	1669,09
332,90	1661,72
333,11	1605,61
333,32	1882,90
333,53	1761,25
333,74	1558,09
333,95	1809,59
334,17	1723,16
334,38	1730,53
334,59	1658,04
334,80	1697,77
335,01	1822,69
335,22	1720,29
335,44	1721,93
335,65	1646,16
335,86	1766,99
336,07	1679,74
336,28	1669,50
336,49	1677,29
336,71	1634,28
336,92	1833,75
337,13	1695,72
337,34	1648,21
337,55	1905,43
337,76	1698,59
337,97	1797,30
338,19	1714,56
338,40	1660,90
338,61	1761,25
338,82	1721,52
339,03	1747,33
339,24	1642,88
339,45	1630,59
339,67	1746,10
339,88	1713,74
340,09	1732,58
340,30	1676,47
340,51	1876,76
340,72	1759,21
340,93	1601,92
341,15	1730,12
341,36	1855,05
341,57	1669,50
341,78	1658,45
341,99	1745,69
342,20	1822,28
342,41	1684,66
342,62	1880,44
342,84	1554,82
343,05	1826,79
343,26	1671,96
343,47	1800,98
343,68	1599,87
343,89	1703,50
344,10	1745,28
344,31	1681,38
344,53	1581,85
344,74	1683,84
344,95	1663,77
345,16	1695,72
345,37	1749,78
345,58	1764,94
345,79	1611,75
346,00	1623,63
346,21	1632,64
346,42	1685,07
346,64	1662,13
346,85	1802,62
347,06	1753,47
347,27	1644,52
347,48	1815,32
347,69	1772,31
347,90	1712,92
348,11	1780,09
348,32	1673,60
348,53	1712,51
348,75	1607,25
348,96	1695,72
349,17	1620,35
349,38	1663,36
349,59	1659,67
349,80	1623,22
350,01	1870,61
350,22	1771,08
350,43	1687,53
350,64	1749,37
350,85	1846,86
351,06	1607,25
351,28	1730,94
351,49	1600,28
351,70	1695,72
351,91	1592,09
352,12	1689,16
352,33	1700,22
352,54	1590,04
352,75	1621,99
352,96	1602,33
353,17	1726,85
353,38	1716,20
353,59	1816,96
353,80	1861,60
354,01	1804,26
354,22	1665,00
354,44	1640,83
354,65	1837,03
354,86	1682,61
355,07	1598,64
355,28	1601,10
355,49	1663,77
355,70	1633,05
355,91	1805,49
356,12	1633,05
356,33	1596,19
356,54	1744,46
356,75	1700,22
356,96	1683,84
357,17	1801,39
357,38	1696,13
357,59	1728,08
357,80	1764,12
358,01	1688,35
358,22	1758,39
358,43	1719,06
358,64	1701,45
358,85	1626,50
359,07	1819,83
359,28	1636,74
359,49	1731,35
359,70	1596,60
359,91	1689,16
360,12	1653,53
360,33	1789,92
360,54	1615,03
360,75	1615,03
360,96	1648,61
361,17	1558,09
361,38	1642,88
361,59	1843,17
361,80	1635,51
362,01	1735,86
362,22	1698,18
362,43	1580,21
362,64	1685,07
362,85	1718,66
363,06	1887,00
363,27	1765,35
363,48	1786,65
363,69	1892,32
363,90	1599,05
364,11	1741,18
364,32	1659,67
364,53	1752,24
364,74	1773,54
364,95	1770,67
365,16	1713,74
365,37	1870,61
365,58	1647,39
365,79	1653,94
366,00	1762,07
366,21	1661,72
366,42	1755,52
366,63	1776,82
366,84	1660,08
367,05	1687,53
367,26	1744,05
367,47	1819,01
367,68	1671,14
367,89	1738,73
368,10	1748,56
368,31	1625,68
368,52	1769,85
368,73	1743,23
368,94	1635,92
369,15	1695,72
369,36	1631,41
369,57	1632,23
369,78	1657,63
369,99	1668,68
370,20	1753,88
370,40	1598,64
370,61	1583,08
370,82	1658,04
371,03	1694,90
371,24	1723,57
371,45	1688,76
371,66	1526,15
371,87	1730,53
372,08	1745,28
372,29	1677,29
372,50	1754,70
372,71	1690,80
372,92	1742,41
373,13	1646,57
373,34	1654,76
373,55	1656,81
373,76	1795,66
373,97	1716,61
374,18	1686,30
374,39	1723,16
374,60	1811,22
374,81	1689,57
375,01	1661,72
375,22	1719,88
375,43	1625,27
375,64	1634,28
375,85	1629,36
376,06	1668,68
376,27	1683,84
376,48	1690,39
376,69	1782,14
376,90	1746,51
377,11	1758,80
377,32	1709,64
377,53	1732,17
377,74	1702,27
377,94	1640,83
378,15	1720,29
378,36	1775,59
378,57	1539,66
378,78	1879,22
378,99	1629,77
379,20	1921,40
379,41	1712,10
379,62	1665,00
379,83	1580,21
380,04	1689,98
380,25	1687,53
380,45	1710,05
380,66	1777,23
380,87	1684,25
381,08	1706,78
381,29	1621,17
381,50	1747,74
381,71	1683,84
381,92	1641,65
382,13	1560,55
382,34	1712,10
382,55	1674,01
382,75	1750,60
382,96	1787,88
383,17	1631,00
383,38	1773,95
383,59	1828,84
383,80	1607,66
384,01	1680,97
384,22	1838,67
384,43	1794,02
384,63	1693,67
384,84	1671,96
385,05	1767,81
385,26	1727,26
385,47	1696,95
385,68	1668,28
385,89	1754,29
386,10	1654,35
386,30	1753,47
386,51	1589,22
386,72	1649,02
386,93	1605,20
387,14	1737,50
387,35	1746,92
387,56	1833,75
387,77	1621,99
387,97	1646,16
388,18	1650,25
388,39	1655,58
388,60	1648,61
388,81	1784,60
389,02	1738,73
389,23	1658,85
389,43	1671,55
389,64	1703,91
389,85	1669,50
390,06	1791,15
390,27	1645,34
390,48	1800,16
390,69	1673,60
390,89	1664,59
391,10	1697,77
391,31	1637,97
391,52	1693,67
391,73	1725,21
391,94	1655,58
392,14	1623,63
392,35	1624,86
392,56	1632,64
392,77	1713,74
392,98	1674,01
393,19	1764,12
393,39	1831,70
393,60	1674,83
393,81	1753,06
394,02	1803,85
394,23	1610,52
394,44	1570,38
394,64	1673,19
394,85	1706,37
395,06	1750,60
395,27	1709,23
395,48	1763,71
395,69	1787,88
395,89	1705,96
396,10	1708,42
396,31	1899,29
396,52	1585,54
396,73	1708,01
396,93	1649,84
397,14	1812,04
397,35	1795,66
397,56	1766,58
397,77	1628,14
397,97	1655,17
398,18	1739,95
398,39	1726,44
398,60	1696,54
398,81	1612,98
399,01	1611,75
399,22	1688,35
399,43	1829,66
399,64	1832,11
399,85	1743,23
400,05	1587,59
400,26	1534,34
400,47	1604,79
400,68	1651,07
400,89	1945,57
401,09	1591,68
401,30	1707,19
401,51	1768,63
401,72	1651,07
401,93	1901,33
402,13	1671,96
402,34	1778,87
402,55	1705,14
402,76	1699,81
402,96	1696,95
403,17	1705,14
403,38	1806,72
403,59	1747,33
403,80	1760,02
404,00	1787,88
404,21	1756,75
404,42	1651,48
404,63	1644,52
404,83	1680,97
405,04	1716,61
405,25	1806,31
405,46	1828,43
405,66	1683,84
405,87	1748,56
406,08	1658,85
406,29	1782,14
406,49	1632,23
406,70	1796,48
406,91	1558,09
407,12	1679,33
407,32	1815,32
407,53	1755,52
407,74	1807,13
407,95	1822,28
408,15	1706,37
408,36	1609,70
408,57	1760,84
408,78	1703,50
408,98	1796,48
409,19	1828,43
409,40	1680,56
409,61	1669,50
409,81	1739,14
410,02	1695,31
410,23	1708,42
410,44	1791,15
410,64	1633,05
410,85	1732,17
411,06	1671,55
411,26	1846,45
411,47	1737,50
411,68	1867,75
411,89	1703,09
412,09	1727,67
412,30	1755,52
412,51	1735,04
412,72	1751,01
412,92	1742,82
413,13	1723,57
413,34	1702,68
413,54	1717,43
413,75	1812,45
413,96	1762,48
414,17	1714,15
414,37	1830,06
414,58	1900,11
414,79	1804,67
414,99	1853,00
415,20	1837,44
415,41	1704,73
415,61	1779,28
415,82	1860,37
416,03	1825,56
416,24	1773,95
416,44	1835,80
416,65	1898,88
416,86	1929,19
417,06	1760,43
417,27	1844,81
417,48	1846,45
417,68	1796,07
417,89	1865,70
418,10	1808,36
418,30	1920,18
418,51	1966,46
418,72	1846,04
418,92	1861,60
419,13	1899,29
419,34	1842,76
419,55	1960,32
419,75	2754,93
419,96	1914,85
420,17	2055,75
420,37	1898,88
420,58	1992,67
420,79	1874,30
420,99	1939,84
421,20	2095,48
421,41	1969,74
421,61	2000,05
421,82	1889,87
422,03	2006,19
422,23	1978,34
422,44	2021,75
422,65	2154,46
422,85	1914,44
423,06	2077,05
423,26	2099,58
423,47	2114,32
423,68	2193,37
423,88	2107,77
424,09	2095,07
424,30	2141,77
424,50	2024,62
424,71	2102,04
424,92	2216,31
425,12	2360,90
425,33	2276,93
425,54	2217,54
425,74	2234,33
425,95	2331,82
426,15	2149,55
426,36	2192,15
426,57	2344,92
426,77	2375,64
426,98	2287,58
427,19	2297,00
427,39	2326,90
427,60	2512,04
427,81	2476,81
428,01	2480,09
428,22	2503,85
428,42	2489,51
428,63	2478,45
428,84	2468,21
429,04	2538,25
429,25	2594,37
429,45	2471,08
429,66	2811,45
429,87	2652,12
430,07	2935,56
430,28	2826,20
430,49	2831,52
430,69	2867,16
430,90	2872,48
431,10	2847,50
431,31	3078,10
431,52	3073,59
431,72	3045,74
431,93	3107,18
432,13	3186,23
432,34	3241,52
432,55	3130,53
432,75	3245,21
432,96	3384,06
433,16	3396,35
433,37	3491,79
433,58	3459,84
433,78	3562,24
433,99	3445,50
434,19	3556,50
434,40	3674,06
434,60	3663,41
434,81	3838,30
435,02	3725,26
435,22	3899,74
435,43	3928,00
435,63	4044,74
435,84	4124,20
436,05	4333,09
436,25	4093,89
436,46	4418,70
436,66	4423,20
436,87	4575,57
437,07	4444,09
437,28	4628,41
437,48	4690,26
437,69	4655,44
437,90	4870,07
438,10	4902,43
438,31	5137,12
438,51	5232,97
438,72	5324,72
438,92	5272,70
439,13	5488,15
439,34	5537,71
439,54	5744,14
439,75	5700,73
439,95	5904,29
440,16	5943,61
440,36	6349,93
440,57	6266,37
440,77	6621,49
440,98	6447,82
441,18	6482,23
441,39	6611,66
441,60	7048,29
441,80	7074,50
442,01	7037,23
442,21	7389,07
442,42	7366,54
442,62	7598,37
442,83	7626,23
443,03	7875,67
443,24	8110,78
443,44	8256,18
443,65	8320,49
443,85	8507,26
444,06	8839,44
444,26	8909,89
444,47	8852,14
444,67	9391,98
444,88	9367,41
445,09	9641,43
445,29	9816,73
445,50	10223,05
445,70	9862,61
445,91	10236,98
446,11	10211,17
446,32	11025,44
446,52	11021,76
446,73	11390,39
446,93	11517,37
447,14	11699,64
447,34	11966,28
447,55	11957,68
447,75	12372,60
447,96	12794,89
448,16	12984,53
448,37	13207,76
448,57	13302,38
448,78	13751,70
448,98	13763,99
449,19	14239,53
449,39	14478,73
449,60	14874,81
449,80	15401,54
450,01	15677,61
450,21	15816,46
450,42	16269,88
450,62	16570,12
450,83	17050,57
451,03	17274,21
451,23	17358,58
451,44	17834,12
451,64	18314,17
451,85	18380,93
452,05	19334,05
452,26	19070,68
452,46	19758,39
452,67	19899,29
452,87	20335,92
453,08	20286,36
453,28	20656,63
453,49	21824,38
453,69	21831,76
453,90	22436,73
454,10	23423,03
454,31	23610,21
454,51	24311,85
454,71	24184,46
454,92	23884,23
455,12	24164,80
455,33	25609,44
455,53	25915,00
455,74	27050,39
455,94	28615,86
456,15	28089,12
456,35	30181,33
456,55	29567,34
456,76	30638,84
456,96	32625,78
457,17	30565,11
457,37	34312,90
457,58	32753,98
457,78	34338,29
457,99	34482,47
458,19	32645,44
458,39	36113,47
458,60	36520,61
458,80	37201,76
459,01	35738,69
459,21	36295,74
459,42	37752,26
459,62	36159,35
459,82	39977,99
460,03	38914,68
460,23	40598,52
460,44	39570,03
460,64	38575,95
460,85	41642,99
461,05	39512,69
461,25	39069,92
461,46	43165,45
461,66	41800,27
461,87	40887,29
462,07	41396,00
462,27	41060,95
462,48	40399,46
462,68	42140,23
462,89	41374,29
463,09	41927,25
463,29	42101,73
463,50	42310,22
463,70	43278,90
463,91	42625,19
464,11	40782,43
464,31	42588,74
464,52	42648,54
464,72	44017,81
464,93	42971,30
465,13	43910,91
465,33	42851,70
465,54	40537,08
465,74	40650,13
465,95	41621,69
466,15	42930,75
466,35	41954,69
466,56	41037,20
466,76	41366,92
466,96	40032,05
467,17	39685,95
467,37	39947,68
467,58	39369,33
467,78	39026,50
467,98	39999,70
468,19	37632,65
468,39	38797,54
468,59	38673,84
468,80	37871,04
469,00	36602,53
469,21	36215,05
469,41	35707,56
469,61	37086,67
469,82	34949,00
470,02	35449,93
470,22	36302,29
470,43	34907,22
470,63	33017,76
470,83	35452,39
471,04	33460,12
471,24	33315,13
471,45	32111,33
471,65	32192,02
471,85	31127,90
472,06	31261,42
472,26	31052,53
472,46	30663,83
472,67	30153,88
472,87	29872,90
473,07	29306,43
473,28	28327,50
473,48	28888,65
473,68	28571,62
473,89	28055,12
474,09	27453,84
474,29	26657,59
474,50	27216,28
474,70	26148,06
474,90	26428,22
475,11	26131,26
475,31	25865,85
475,51	25437,00
475,72	25099,50
475,92	24623,14
476,12	23598,33
476,33	24413,84
476,53	23899,39
476,73	23478,32
476,93	23613,90
477,14	22676,75
477,34	22312,62
477,54	22346,62
477,75	22383,89
477,95	21833,39
478,15	21612,62
478,36	21325,50
478,56	21417,66
478,76	21311,16
478,97	20915,50
479,17	20375,65
479,37	20353,53
479,57	19954,59
479,78	19775,60
479,98	19391,40
480,18	19554,01
480,39	19463,08
480,59	19052,25
480,79	18726,22
480,99	18662,73
481,20	18130,26
481,40	18280,99
481,60	18029,09
481,81	17670,69
482,01	17353,67
482,21	17017,39
482,41	17078,01
482,62	16826,93
482,82	16658,18
483,02	16740,92
483,23	16212,13
483,43	16156,43
483,63	15641,57
483,83	15619,04
484,04	15811,14
484,24	15185,28
484,44	15361,40
484,64	14739,64
484,85	14506,17
485,05	14487,74
485,25	14323,49
485,45	14060,94
485,66	13919,22
485,86	13649,30
486,06	13658,31
486,26	13490,38
486,47	13234,79
486,67	13001,32
486,87	13015,25
487,07	12588,86
487,28	12327,54
487,48	12114,55
487,68	12245,21
487,88	11916,31
488,09	11684,48
488,29	11680,79
488,49	11600,51
488,69	11290,86
488,90	11170,44
489,10	10810,41
489,30	10709,24
489,50	10647,80
489,71	10455,70
489,91	10310,29
490,11	10104,68
490,31	10045,29
490,52	9846,22
490,72	9793,80
490,92	9781,10
491,12	9492,34
491,32	9289,18
491,53	9203,16
491,73	9054,07
491,93	8827,97
492,13	8815,28
492,33	8686,66
492,54	8571,57
492,74	8506,03
492,94	8347,11
493,14	8207,44
493,35	8062,44
493,55	8066,54
493,75	7924,00
493,95	7821,60
494,15	7623,77
494,36	7579,94
494,56	7424,30
494,76	7258,41
494,96	7211,72
495,16	7094,57
495,37	7177,72
495,57	6816,05
495,77	6872,57
495,97	6811,13
496,17	6692,76
496,37	6714,06
496,58	6633,78
496,78	6360,58
496,98	6266,37
497,18	6441,27
497,38	6292,18
497,59	6313,07
497,79	5994,40
497,99	6107,86
498,19	5923,14
498,39	5982,53
498,59	5665,09
498,80	5810,50
499,00	5603,65
499,20	5441,86
499,40	5369,36
499,60	5383,29
499,80	5307,93
500,01	5248,12
500,21	5174,81
500,41	5107,63
500,61	5136,72
500,81	4990,08
501,01	4944,21
501,22	4852,87
501,42	4757,43
501,62	4732,04
501,82	4790,20
502,02	4593,18
502,22	4525,60
502,42	4532,56
502,63	4647,25
502,83	4486,28
503,03	4360,94
503,23	4264,69
503,43	4214,31
503,63	4365,04
503,83	4368,73
504,04	4098,80
504,24	4121,33
504,44	4030,81
504,64	4010,33
504,84	4133,62
505,04	3887,04
505,24	3847,31
505,44	3865,34
505,65	3894,01
505,85	3885,41
506,05	3740,82
506,25	3666,27
506,45	3726,07
506,65	3572,48
506,85	3472,95
507,05	3656,85
507,26	3581,90
507,46	3644,57
507,66	3363,17
507,86	3308,70
508,06	3443,05
508,26	3237,43
508,46	3310,75
508,66	3325,90
508,86	3372,59
509,06	3237,84
509,27	3297,23
509,47	3200,98
509,67	3090,79
509,87	3155,51
510,07	3214,49
510,27	3122,33
510,47	3205,07
510,67	3150,19
510,87	3066,22
511,07	2990,03
511,28	2989,22
511,48	3104,72
511,68	2967,92
511,88	2821,69
512,08	2861,01
512,28	2780,32
512,48	2870,02
512,68	2756,98
512,88	2772,13
513,08	2914,67
513,28	2951,94
513,48	2868,39
513,68	2768,85
513,89	2754,52
514,09	2787,29
514,29	2655,40
514,49	2663,59
514,69	2761,48
514,89	2638,60
515,09	2651,71
515,29	2658,67
515,49	2595,60
515,69	2737,72
515,89	2730,35
516,09	2557,09
516,29	2433,81
516,49	2427,66
516,69	2594,37
516,89	2508,35
517,09	2537,43
517,29	2567,74
517,50	2398,58
517,70	2439,54
517,90	2492,38
518,10	2453,47
518,30	2460,84
518,50	2513,27
518,70	2501,39
518,90	2435,44
519,10	2482,55
519,30	2281,44
519,50	2368,27
519,70	2397,35
519,90	2500,98
520,10	2426,84
520,30	2400,63
520,50	2312,16
520,70	2346,15
520,90	2545,63
521,10	2327,72
521,30	2324,03
521,50	2471,90
521,70	2437,90
521,90	2445,68
522,10	2469,85
522,30	2358,03
522,50	2265,05
522,70	2368,68
522,90	2290,04
523,10	2403,50
523,30	2317,89
523,50	2367,86
523,70	2275,70
523,90	2236,79
524,10	2308,88
524,30	2274,06
524,50	2297,00
524,70	2369,91
524,90	2253,99
525,10	2335,50
525,30	2206,07
525,50	2211,40
525,70	2118,83
525,90	2274,06
526,10	2317,07
526,30	2229,01
526,50	2277,34
526,70	2225,32
526,90	2176,99
527,10	2214,67
527,30	2217,95
527,50	2256,86
527,70	2227,78
527,90	2223,27
528,10	2248,26
528,30	2185,18
528,50	2223,68
528,70	2209,76
528,90	2196,24
529,10	2238,43
529,30	2098,35
529,50	2277,75
529,70	2215,49
529,90	2181,09
530,10	2193,78
530,29	2288,81
530,49	2242,12
530,69	2217,54
530,89	2123,33
531,09	2162,65
531,29	2210,99
531,49	2077,05
531,69	2228,19
531,89	2124,97
532,09	2140,13
532,29	2165,52
532,49	2129,89
532,69	2095,07
532,89	2019,71
533,09	2119,65
533,29	2056,98
533,49	2110,23
533,68	2121,70
533,88	2153,23
534,08	2057,80
534,28	2066,81
534,48	2075,00
534,68	2017,25
534,88	2186,41
535,08	2077,05
535,28	2223,68
535,48	2093,84
535,68	2118,01
535,88	2236,79
536,08	2080,74
536,27	2083,60
536,47	2134,80
536,67	2171,26
536,87	2029,54
537,07	2080,33
537,27	2208,94
537,47	2059,44
537,67	1986,94
537,87	2006,60
538,07	2035,68
538,27	2168,39
538,46	2231,88
538,66	2012,33
538,86	1998,00
539,06	2050,43
539,26	2043,46
539,46	2077,46
539,66	2078,69
539,86	2002,09
540,06	2029,54
540,25	2131,12
540,45	1972,19
540,65	2071,32
540,85	2015,20
541,05	2148,73
541,25	2128,66
541,45	2056,16
541,65	2136,85
541,85	2073,36
542,04	2069,68
542,24	2128,25
542,44	2111,87
542,64	2096,71
542,84	2008,24
543,04	1956,22
543,24	2141,36
543,43	2001,68
543,63	2215,90
543,83	2065,17
544,03	2040,60
544,23	2052,88
544,43	2034,45
544,63	2083,19
544,82	2022,57
545,02	2025,03
545,22	2077,87
545,42	2059,85
545,62	2049,61
545,82	1977,11
546,02	2004,55
546,21	2049,20
546,41	2034,45
546,61	1953,35
546,81	1950,49
547,01	2169,21
547,21	2069,27
547,40	2023,80
547,60	2110,23
547,80	2071,73
548,00	1915,26
548,20	2018,89
548,40	2018,89
548,59	1922,63
548,79	2118,83
548,99	2109,41
549,19	2060,67
549,39	2055,75
549,59	1993,08
549,78	2101,22
549,98	1985,71
550,18	2044,28
550,38	2115,14
550,58	2042,23
550,77	2062,30
550,97	2011,51
551,17	2066,81
551,37	2069,68
551,57	2024,21
551,76	2022,57
551,96	1989,40
552,16	2102,04
552,36	2038,55
552,56	2081,97
552,75	2016,43
552,95	1935,74
553,15	2101,22
553,35	2287,17
553,55	1916,08
553,74	2069,27
553,94	1921,81
554,14	1933,69
554,34	1996,36
554,54	2001,28
554,73	1887,82
554,93	1968,10
555,13	1988,58
555,33	1948,44
555,53	1850,54
555,72	2034,04
555,92	2183,13
556,12	2027,49
556,32	2061,89
556,51	2016,84
556,71	1971,78
556,91	2052,47
557,11	1982,43
557,30	2025,44
557,50	2101,63
557,70	1951,71
557,90	1966,05
558,10	2000,46
558,29	2017,25
558,49	2010,70
558,69	2025,03
558,89	2025,85
559,08	2043,05
559,28	1877,99
559,48	1933,28
559,68	2050,84
559,87	2086,88
560,07	1976,29
560,27	2007,01
560,47	1982,43
560,66	1934,92
560,86	1981,61
561,06	2018,48
561,25	1904,20
561,45	1955,40
561,65	1943,52
561,85	1930,01
562,04	1994,31
562,24	1945,16
562,44	1965,64
562,64	2104,08
562,83	2195,01
563,03	2105,72
563,23	1916,90
563,42	1948,03
563,62	1875,12
563,82	1918,95
564,02	1941,88
564,21	1976,70
564,41	1919,36
564,61	1952,94
564,80	1943,93
565,00	2038,14
565,20	1950,08
565,40	2163,88
565,59	1844,81
565,79	1997,59
565,99	2016,84
566,18	2016,43
566,38	2023,39
566,58	1917,31
566,78	1903,79
566,97	2041,42
567,17	2079,51
567,37	1885,77
567,56	1981,61
567,76	2016,43
567,96	1916,49
568,15	1952,53
568,35	1950,49
568,55	2003,73
568,74	1924,68
568,94	1930,01
569,14	1930,42
569,33	1928,37
569,53	1907,07
569,73	1914,44
569,92	2067,22
570,12	1932,46
570,32	1889,05
570,52	1879,22
570,71	1911,57
570,91	2081,15
571,11	1898,47
571,30	1934,51
571,50	1930,01
571,70	2037,32
571,89	2011,92
572,09	2031,18
572,28	1823,51
572,48	1798,12
572,68	1832,11
572,87	1945,57
573,07	1961,95
573,27	2016,84
573,46	2016,43
573,66	1875,12
573,86	1952,53
574,05	1892,73
574,25	1843,58
574,45	1891,50
574,64	1982,43
574,84	2163,47
575,04	2000,46
575,23	1998,00
575,43	1919,36
575,62	1926,32
575,82	1995,54
576,02	1824,74
576,21	1912,39
576,41	1844,81
576,61	1958,27
576,80	1944,34
577,00	1853,00
577,19	1832,52
577,39	1997,18
577,59	1959,50
577,78	1991,04
577,98	1969,33
578,18	1914,44
578,37	1935,74
578,57	1990,22
578,76	1961,54
578,96	1942,29
579,16	1939,84
579,35	1945,16
579,55	1845,63
579,74	2033,63
579,94	1803,03
580,14	2112,27
580,33	1936,56
580,53	1893,55
580,72	1935,74
580,92	1945,57
581,12	1825,15
581,31	1980,39
581,51	1998,41
581,70	1894,78
581,90	1882,90
582,10	2000,46
582,29	1966,87
582,49	1931,23
582,68	1879,63
582,88	1890,68
583,07	2157,33
583,27	2005,37
583,47	2068,04
583,66	1950,08
583,86	1872,25
584,05	1952,94
584,25	1899,29
584,44	1999,23
584,64	2003,73
584,84	1748,56
585,03	1916,49
585,23	1835,80
585,42	1838,26
585,62	1855,46
585,81	1839,08
586,01	1936,56
586,20	1908,71
586,40	1935,33
586,60	2043,87
586,79	1911,98
586,99	1944,34
587,18	1947,62
587,38	1773,13
587,57	1785,83
587,77	1846,45
587,96	2017,66
588,16	1899,70
588,35	1891,91
588,55	2023,80
588,75	2017,66
588,94	1903,38
589,14	1831,70
589,33	1802,21
589,53	1982,02
589,72	1803,85
589,92	1820,64
590,11	1936,15
590,31	1989,40
590,50	2028,72
590,70	2068,86
590,89	2061,89
591,09	1968,10
591,28	2111,05
591,48	1926,73
591,67	2068,86
591,87	1839,90
592,06	1942,70
592,26	1898,06
592,45	1942,29
592,65	2033,63
592,84	1843,17
593,04	1879,63
593,23	1919,36
593,43	1850,13
593,62	1916,49
593,82	1953,35
594,01	1808,77
594,21	1962,77
594,40	1897,65
594,60	1735,45
594,79	1915,26
594,99	1964,00
595,18	1819,01
595,38	1974,24
595,57	1869,39
595,77	1960,32
595,96	1998,00
596,16	1912,39
596,35	1876,35
596,55	1882,08
596,74	1943,93
596,94	1900,11
597,13	1904,61
597,33	1830,88
597,52	1903,38
597,72	1843,99
597,91	2030,77
598,11	1813,27
598,30	1826,79
598,50	1860,37
598,69	1826,38
598,88	1819,42
599,08	1842,35
599,27	1868,16
599,47	1751,42
599,66	1909,53
599,86	1880,44
600,05	1855,05
600,25	1896,01
600,44	1927,55
600,64	1979,57
600,83	1852,59
601,02	1980,80
601,22	1922,22
601,41	1961,95
601,61	1856,69
601,80	1901,74
602,00	1870,61
602,19	1803,44
602,38	1820,64
602,58	1826,38
602,77	1863,24
602,97	1704,32
603,16	1872,25
603,36	1884,13
603,55	1868,57
603,74	1837,03
603,94	1771,08
604,13	1944,75
604,33	1824,33
604,52	1773,13
604,72	1847,68
604,91	1827,20
605,10	1776,41
605,30	1806,72
605,49	1931,23
605,69	1919,36
605,88	1904,20
606,07	1918,95
606,27	1999,64
606,46	1896,42
606,66	1864,47
606,85	1748,56
607,04	1803,03
607,24	1827,20
607,43	1932,87
607,63	1800,16
607,82	1835,39
608,01	1802,21
608,21	1791,15
608,40	1880,04
608,60	1828,02
608,79	1853,00
608,98	1810,40
609,18	1916,49
609,37	2000,46
609,57	1864,47
609,76	1979,16
609,95	1814,50
610,15	1880,04
610,34	1892,73
610,53	1764,53
610,73	1814,50
610,92	1835,39
611,11	1799,35
611,31	1866,11
611,50	1779,28
611,70	1911,98
611,89	1835,39
612,08	1860,78
612,28	1806,31
612,47	1905,84
612,66	1777,23
612,86	2011,51
613,05	1869,39
613,24	1940,25
613,44	1878,81
613,63	1831,70
613,82	1904,61
614,02	1861,19
614,21	1828,02
614,41	1791,97
614,60	1911,98
614,79	1755,52
614,99	1994,72
615,18	1809,59
615,37	1886,18
615,57	1820,64
615,76	1818,60
615,95	1816,96
616,15	1812,45
616,34	1999,23
616,53	1944,75
616,73	1841,53
616,92	1830,06
617,11	1835,80
617,30	1772,31
617,50	1812,86
617,69	1960,73
617,88	1943,11
618,08	1986,53
618,27	1847,68
618,46	1787,06
618,66	1761,25
618,85	1753,06
619,04	1868,16
619,24	1960,73
619,43	1911,57
619,62	1825,97
619,82	1795,25
620,01	1767,81
620,20	1728,08
620,39	1785,83
620,59	1891,09
620,78	1877,99
620,97	1900,52
621,17	1858,74
621,36	1809,18
621,55	1825,56
621,74	1825,97
621,94	1654,76
622,13	2016,43
622,32	1837,03
622,52	1765,35
622,71	1858,74
622,90	1933,69
623,09	1797,30
623,29	1757,16
623,48	1800,57
623,67	1752,65
623,86	1905,02
624,06	1682,20
624,25	1812,86
624,44	1953,35
624,64	1902,15
624,83	1760,84
625,02	1821,05
625,21	1932,46
625,41	1769,04
625,60	1831,29
625,79	1674,83
625,98	1746,92
626,18	1802,21
626,37	1929,60
626,56	1795,25
626,75	1736,27
626,95	1785,01
627,14	1787,47
627,33	1810,40
627,52	1753,47
627,72	1777,64
627,91	1957,45
628,10	1769,85
628,29	1847,27
628,49	1833,75
628,68	1900,11
628,87	1821,87
629,06	1922,22
629,25	1776,41
629,45	1805,90
629,64	2011,51
629,83	1823,51
630,02	1742,41
630,22	1918,54
630,41	1705,55
630,60	1863,24
630,79	1784,60
630,98	1765,35
631,18	1677,29
631,37	1633,87
631,56	1759,61
631,75	1864,47
631,94	1777,23
632,14	1743,23
632,33	1658,04
632,52	1697,36
632,71	2435,44
632,90	1798,94
633,10	1768,63
633,29	1790,33
633,48	1747,33
633,67	1722,75
633,86	1864,47
634,06	1742,82
634,25	1789,92
634,44	1904,20
634,63	1803,44
634,82	1716,61
635,02	1806,31
635,21	1734,63
635,40	1727,26
635,59	1732,58
635,78	1816,55
635,97	1769,04
636,17	1775,18
636,36	1859,56
636,55	1811,63
636,74	1815,73
636,93	1813,27
637,12	1877,99
637,32	1770,67
637,51	1666,23
637,70	1883,31
637,89	1754,29
638,08	1698,18
638,27	1896,01
638,47	1787,06
638,66	1795,66
638,85	1696,95
639,04	1767,40
639,23	1845,63
639,42	1825,56
639,62	1868,16
639,81	1829,25
640,00	1843,99
640,19	1789,11
640,38	1738,73
640,57	1796,07
640,76	1873,89
640,95	1729,71
641,15	1678,52
641,34	1838,26
641,53	1724,39
641,72	1899,29
641,91	1846,04
642,10	1678,11
642,29	1812,04
642,49	1679,74
642,68	1722,34
642,87	1730,94
643,06	1746,51
643,25	1821,46
643,44	1706,37
643,63	1771,90
643,82	1741,59
644,01	1708,01
644,21	1757,16
644,40	1868,98
644,59	1712,92
644,78	1753,47
644,97	2003,32
645,16	1823,92
645,35	1791,56
645,54	1752,65
645,73	1781,73
645,92	1831,29
646,12	1748,15
646,31	1743,64
646,50	1738,32
646,69	1849,73
646,88	1676,47
647,07	1810,40
647,26	1708,01
647,45	1731,35
647,64	1806,31
647,83	1709,64
648,02	1803,85
648,22	1783,37
648,41	1728,49
648,60	1768,63
648,79	1766,99
648,98	1872,66
649,17	1760,43
649,36	1602,74
649,55	1732,58
649,74	1858,33
649,93	1701,86
650,12	1771,90
650,31	1834,98
650,50	1837,44
650,69	1833,34
650,88	1861,60
651,08	1731,35
651,27	1831,70
651,46	1852,59
651,65	1672,78
651,84	1694,49
652,03	1719,06
652,22	1695,31
652,41	1693,67
652,60	1931,23
652,79	1906,66
652,98	1762,48
653,17	1735,45
653,36	1797,30
653,55	1780,09
653,74	1848,09
653,93	1748,97
654,12	1747,33
654,31	1680,56
654,50	1772,31
654,69	1871,84
654,88	1806,72
655,07	1677,70
655,26	1678,92
655,45	1689,98
655,64	1631,41
655,83	1726,03
656,02	1822,28
656,21	1650,25
656,40	1712,92
656,59	1800,16
656,78	1685,07
656,97	1702,27
657,17	1826,79
657,36	1697,77
657,55	1961,95
657,74	1776,82
657,93	1783,37
658,12	1807,13
658,31	1743,64
658,50	1722,75
658,69	1649,43
658,87	1817,78
659,06	1720,70
659,25	1756,34
659,44	1656,40
659,63	1819,83
659,82	1797,71
660,01	1787,06
660,20	1704,73
660,39	1816,14
660,58	1707,19
660,77	1737,91
660,96	1756,75
661,15	1779,68
661,34	1751,83
661,53	1718,25
661,72	1788,29
661,91	1706,78
662,10	1707,19
662,29	1629,77
662,48	1710,05
662,67	1667,46
662,86	1694,08
663,05	1676,88
663,24	1814,91
663,43	1745,69
663,62	1859,97
663,81	1667,05
664,00	1853,00
664,19	1628,14
664,38	1726,03
664,57	1669,91
664,76	1761,66
664,94	1649,02
665,13	1700,22
665,32	1616,26
665,51	1703,91
665,70	1671,96
665,89	1762,07
666,08	1745,28
666,27	1679,74
666,46	1735,86
666,65	1763,30
666,84	1575,30
667,03	1663,77
667,22	1662,54
667,41	1843,58
667,60	1710,46
667,78	1717,84
667,97	1740,77
668,16	1826,79
668,35	1714,56
668,54	1697,77
668,73	1675,65
668,92	1662,13
669,11	1668,28
669,30	1739,14
669,49	1669,09
669,68	1826,38
669,86	1660,49
670,05	1698,99
670,24	1687,12
670,43	1721,11
670,62	1791,97
670,81	1683,43
671,00	1688,76
671,19	1812,04
671,38	1692,44
671,57	1689,57
671,75	1653,94
671,94	1755,52
672,13	1766,99
672,32	1647,80
672,51	1709,23
672,70	1789,11
672,89	1697,36
673,08	1626,09
673,26	1678,92
673,45	1649,02
673,64	1712,92
673,83	1712,51
674,02	1665,00
674,21	1884,13
674,40	1728,90
674,59	1787,47
674,77	1768,22
674,96	1785,83
675,15	1816,14
675,34	1728,90
675,53	1877,99
675,72	1713,74
675,91	1798,53
676,09	1852,59
676,28	1984,07
676,47	1706,37
676,66	1646,98
676,85	1829,25
677,04	1743,23
677,22	1788,70
677,41	1733,40
677,60	1741,18
677,79	1648,61
677,98	1714,15
678,17	1611,75
678,36	1708,83
678,54	1632,64
678,73	1776,00
678,92	1576,12
679,11	1813,68
679,30	1672,78
679,48	1721,93
679,67	1714,15
679,86	1656,81
680,05	1786,65
680,24	1626,09
680,43	1705,55
680,61	1643,29
680,80	1619,94
680,99	1635,92
681,18	1663,36
681,37	1764,53
681,55	1886,59
681,74	1793,20
681,93	1702,27
682,12	1630,18
682,31	1638,78
682,49	1691,62
682,68	1784,19
682,87	1658,45
683,06	1645,34
683,25	1768,22
683,43	1780,09
683,62	1654,76
683,81	1841,53
684,00	1874,30
684,19	1711,69
684,37	1634,28
684,56	1634,28
684,75	1865,29
684,94	1692,85
685,12	1845,63
685,31	1735,45
685,50	1738,32
685,69	1695,72
685,88	1700,63
686,06	1724,39
686,25	1678,52
686,44	1701,45
686,63	1658,04
686,81	1812,04
687,00	1701,45
687,19	1711,28
687,38	1792,79
687,56	1613,39
687,75	1793,61
687,94	1641,65
688,13	1642,88
688,31	1714,56
688,50	1663,77
688,69	1698,99
688,88	1796,89
689,06	1756,34
689,25	1702,68
689,44	1612,16
689,63	1721,52
689,81	1630,18
690,00	1659,67
690,19	1727,26
690,38	1702,68
690,56	1672,37
690,75	1812,86
690,94	1720,70
691,13	1654,76
691,31	1712,10
691,50	1654,76
691,69	1732,58
691,87	1607,25
692,06	1720,70
692,25	1690,80
692,44	1647,39
692,62	1653,12
692,81	1939,43
693,00	1722,75
693,18	1672,37
693,37	1798,12
693,56	1599,05
693,75	1642,47
693,93	1760,43
694,12	1817,37
694,31	1664,18
694,49	1624,04
694,68	1628,54
694,87	1660,90
695,05	1681,38
695,24	1659,67
695,43	1609,70
695,62	1557,69
695,80	1658,45
695,99	1779,28
696,18	1654,35
696,36	1826,79
696,55	1648,61
696,74	1565,06
696,92	1795,25
697,11	1744,46
697,30	1782,55
697,48	1697,77
697,67	1657,22
697,86	1697,77
698,04	1571,61
698,23	1661,31
698,42	1740,77
698,60	1651,07
698,79	1689,98
698,98	1741,18
699,16	1654,35
699,35	1616,67
699,54	1770,26
699,72	1662,54
699,91	1925,50
700,10	1683,43
700,28	1717,43
700,47	1936,56
700,66	1674,83
700,84	1651,07
701,03	1618,71
701,21	2388,34
701,40	1629,36
701,59	1745,69
701,77	1657,22
701,96	1651,07
702,15	1701,04
702,33	1656,81
702,52	1584,31
702,71	1767,81
702,89	1633,87
703,08	1724,80
703,26	1761,66
703,45	1825,97
703,64	1757,57
703,82	1803,85
704,01	1666,64
704,20	1759,61
704,38	1745,69
704,57	1625,27
704,75	1583,08
704,94	1654,35
705,13	1663,77
705,31	1735,86
705,50	1665,00
705,68	1737,50
705,87	1779,68
706,06	1755,11
706,24	1663,36
706,43	1595,37
706,61	1754,70
706,80	1633,46
706,99	1712,10
707,17	1822,69
707,36	1776,00
707,54	1709,23
707,73	1671,14
707,92	1705,96
708,10	1618,71
708,29	1648,61
708,47	1658,04
708,66	1726,03
708,84	1662,13
709,03	1682,20
709,22	1741,59
709,40	1693,26
709,59	1747,33
709,77	1792,79
709,96	1789,11
710,14	1612,57
710,33	1749,37
710,52	1735,86
710,70	1773,54
710,89	1680,97
711,07	1699,81
711,26	1710,87
711,44	1836,21
711,63	1677,70
711,81	1749,37
712,00	1610,52
712,19	1737,91
712,37	1815,73
712,56	1729,71
712,74	1701,45
712,93	1742,41
713,11	1652,71
713,30	1685,48
713,48	1712,92
713,67	1609,29
713,85	1666,64
714,04	1744,05
714,22	1791,97
714,41	1793,20
714,59	1683,84
714,78	1722,75
714,97	1708,42
715,15	1644,93
715,34	1766,58
715,52	1623,22
715,71	1715,79
715,89	1666,64
716,08	1675,65
716,26	1546,22
716,45	1676,47
716,63	1634,28
716,82	1678,11
717,00	1564,65
717,19	1759,61
717,37	1667,46
717,56	1694,49
717,74	1656,81
717,93	1710,87
718,11	1702,68
718,30	1526,15
718,48	1714,15
718,67	1832,93
718,85	1693,67
719,04	1646,16
719,22	1601,92
719,41	1749,37
719,59	1841,12
719,78	1687,12
719,96	1630,59
720,15	1689,57
720,33	1735,45
720,52	1739,14
720,70	1578,57
720,88	1747,33
721,07	1618,71
721,25	1645,34
721,44	1653,94
721,62	1705,96
721,81	1572,02
721,99	1526,15
722,18	1665,41
722,36	1660,49
722,55	1651,89
722,73	1661,31
722,92	1715,79
723,10	1641,24
723,28	1708,42
723,47	1713,74
723,65	1776,82
723,84	1710,46
724,02	1588,81
724,21	1725,21
724,39	1601,51
724,58	1623,63
724,76	1752,24
724,94	1617,90
725,13	1712,92
725,31	1680,56
725,50	1727,26
725,68	1694,90
725,87	1655,99
726,05	1708,42
726,23	1630,59
726,42	1690,80
726,60	1678,11
726,79	1648,61
726,97	1701,04
727,16	1768,63
727,34	1699,40
727,52	1646,98
727,71	1784,60
727,89	1587,18
728,08	1594,96
728,26	1712,92
728,44	1699,40
728,63	1789,92
728,81	1685,07
729,00	1699,81
729,18	1711,69
729,36	1632,64
729,55	1720,70
729,73	1736,68
729,92	1713,33
730,10	1625,27
730,28	1630,18
730,47	1633,46
730,65	1724,39
730,84	1809,18
731,02	1588,40
731,20	1779,28
731,39	1692,03
731,57	1750,60
731,75	1744,87
731,94	1642,47
732,12	1755,11
732,31	1680,56
732,49	1583,90
732,67	1653,53
732,86	1570,79
733,04	1696,13
733,22	1554,82
733,41	1597,42
733,59	1670,73
733,78	1660,90
733,96	1723,16
734,14	1568,33
734,33	1555,64
734,51	1705,55
734,69	1728,49
734,88	1670,73
735,06	1655,58
735,24	1651,48
735,43	1778,46
735,61	1610,52
735,79	1736,68
735,98	1650,66
736,16	1837,85
736,34	1641,65
736,53	1677,70
736,71	1719,88
736,89	1722,34
737,08	1748,56
737,26	1674,42
737,44	1674,83
737,63	1662,54
737,81	1593,32
737,99	1723,57
738,18	1711,28
738,36	1832,52
738,54	1681,79
738,73	1732,17
738,91	1809,18
739,09	1643,70
739,28	1638,78
739,46	1636,74
739,64	1647,39
739,82	1751,83
740,01	1631,82
740,19	1896,42
740,37	1699,81
740,56	1715,38
740,74	1659,26
740,92	1718,66
741,11	1548,26
741,29	1678,52
741,47	1785,42
741,65	1643,29
741,84	1658,04
742,02	1822,69
742,20	1683,84
742,39	1674,83
742,57	1677,70
742,75	1592,09
742,93	1642,06
743,12	1683,43
743,30	1601,10
743,48	1654,76
743,67	1686,30
743,85	1583,90
744,03	1789,52
744,21	1661,72
744,40	1659,67
744,58	1720,70
744,76	1705,14
744,94	1671,55
745,13	1641,65
745,31	1653,12
745,49	1632,64
745,67	1618,30
745,86	1740,36
746,04	1687,94
746,22	1689,16
746,40	1615,03
746,59	1625,68
746,77	1696,54
746,95	1803,85
747,13	1693,26
747,32	1685,89
747,50	1691,21
747,68	1636,74
747,86	1606,02
748,05	1750,60
748,23	1667,05
748,41	1734,63
748,59	1641,65
748,77	1624,86
748,96	1661,31
749,14	1589,22
749,32	1887,00
749,50	1740,36
749,69	1754,70
749,87	1716,61
750,05	1693,26
750,23	1588,40
750,41	1640,01
750,60	1723,16
750,78	1587,18
750,96	1698,18
751,14	1705,55
751,32	1663,77
751,51	1596,19
751,69	1599,87
751,87	1564,24
752,05	1726,85
752,23	1728,90
752,42	1642,47
752,60	1716,61
752,78	1701,04
752,96	1618,30
753,14	1666,23
753,33	1607,25
753,51	1646,57
753,69	1669,91
753,87	1697,36
754,05	1744,05
754,23	1694,08
754,42	1662,54
754,60	1660,90
754,78	1814,09
754,96	1576,94
755,14	1653,12
755,32	1730,53
755,51	1587,59
755,69	1723,16
755,87	1642,47
756,05	1583,49
756,23	1655,99
756,41	1653,94
756,60	1722,75
756,78	1684,66
756,96	1613,39
757,14	1670,73
757,32	1548,67
757,50	1711,28
757,68	1639,60
757,87	1581,44
758,05	1653,12
758,23	1675,65
758,41	1841,53
758,59	1783,37
758,77	1803,44
758,95	1775,59
759,14	1704,73
759,32	1771,49
759,50	1598,64
759,68	1617,90
759,86	1648,61
760,04	1651,89
760,22	1627,32
760,40	1976,29
760,59	1673,19
760,77	1790,33
760,95	1612,57
761,13	1638,38
761,31	1741,59
761,49	1715,38
761,67	1759,21
761,85	1603,15
762,03	1673,60
762,22	1795,66
762,40	1730,94
762,58	1661,31
762,76	1663,36
762,94	1676,47
763,12	1692,03
763,30	1798,94
763,48	1706,37
763,66	1648,61
763,84	1602,33
764,02	1653,94
764,21	1675,65
764,39	1855,87
764,57	1670,73
764,75	1652,71
764,93	1726,85
765,11	1648,21
765,29	1706,78
765,47	1653,94
765,65	1678,92
765,83	1683,43
766,01	1679,74
766,19	1709,23
766,37	1849,32
766,56	1737,50
766,74	1619,12
766,92	1677,29
767,10	1600,28
767,28	1675,65
767,46	1681,38
767,64	1666,64
767,82	1737,09
768,00	1660,90
768,18	1566,70
768,36	1759,21
768,54	1805,08
768,72	1776,41
768,90	1586,36
769,08	1542,12
769,26	1680,97
769,44	1660,90
769,62	1703,09
769,80	1771,90
769,98	1708,83
770,16	1581,44
770,34	1682,20
770,52	1631,41
770,71	1694,90
770,89	1644,93
771,07	1839,90
771,25	1687,94
771,43	1753,88
771,61	1746,51
771,79	1665,41
771,97	1657,22
772,15	1649,02
772,33	1687,53
772,51	1772,72
772,69	1624,45
772,87	1709,64
773,05	1657,22
773,23	1770,67
773,41	1692,44
773,59	1782,96
773,77	1671,96
773,95	1728,49
774,13	1734,22
774,31	1775,59
774,49	1785,83
774,67	1653,12
774,85	1704,32
775,03	1687,12
775,21	1727,67
775,39	1631,41
775,57	1605,61
775,75	1757,98
775,93	1651,48
776,10	1635,92
776,28	1734,63
776,46	1610,11
776,64	1676,88
776,82	1623,63
777,00	3038,78
777,18	1557,28
777,36	1737,91
777,54	1667,05
777,72	1610,52
777,90	1754,29
778,08	1639,19
778,26	1598,23
778,44	1599,05
778,62	1707,19
778,80	1841,53
778,98	1734,22
779,16	1632,23
779,34	1855,46
779,52	1625,27
779,70	1808,77
779,88	1623,22
780,05	1634,28
780,23	1612,98
780,41	1648,21
780,59	1662,54
780,77	1697,77
780,95	1694,90
781,13	1730,94
781,31	1641,65
781,49	1747,74
781,67	1721,93
781,85	1667,46
782,03	1672,37
782,21	1673,60
782,39	1662,13
782,56	1753,47
782,74	1764,12
782,92	1649,02
783,10	1837,03
783,28	1642,88
783,46	1591,68
783,64	1749,78
783,82	1644,52
784,00	1741,18
784,18	1649,43
784,35	1612,98
784,53	1581,85
784,71	1618,71
784,89	1710,46
785,07	1683,84
785,25	1727,26
785,43	1748,15
785,61	1579,39
785,79	1678,92
785,96	1759,21
786,14	1645,75
786,32	1745,28
786,50	1718,25
786,68	1534,75
786,86	1640,42
787,04	1684,66
787,22	1684,25
787,39	1626,91
787,57	1644,11
787,75	1644,52
787,93	1722,34
788,11	1585,54
788,29	1715,79
788,47	1715,38
788,65	1673,19
788,82	1692,03
789,00	1628,95
789,18	1732,58
789,36	1687,53
789,54	1627,73
789,72	1649,02
789,89	1652,30
790,07	1796,89
790,25	1752,24
790,43	1694,90
790,61	1708,83
790,79	1692,03
790,96	1655,17
791,14	1813,27
791,32	1558,09
791,50	1730,12
791,68	1802,21
791,86	1662,13
792,03	1657,22
792,21	1665,00
792,39	1619,53
792,57	1641,24
792,75	1583,90
792,93	1717,84
793,10	1635,10
793,28	1678,92
793,46	1569,15
793,64	1699,40
793,82	1837,44
793,99	1712,92
794,17	1592,09
794,35	1684,66
794,53	1692,44
794,71	1553,59
794,88	1583,08
795,06	1694,08
795,24	1635,92
795,42	1681,79
795,60	1740,77
795,77	1612,16
795,95	1658,04
796,13	1649,02
796,31	1676,06
796,49	1829,25
796,66	1688,76
796,84	1574,89
797,02	1796,07
797,20	1721,52
797,37	1685,07
797,55	1608,47
797,73	1644,11
797,91	1560,55
798,08	1706,78
798,26	1750,19
798,44	1619,53
798,62	1569,15
798,80	1613,80
798,97	1660,08
799,15	1671,96
799,33	1807,95
799,51	1783,78
799,68	1660,49
799,86	1739,14
800,04	1703,50
800,22	1675,65
800,39	1655,99
800,57	1786,24
800,75	1711,69
800,93	1720,29
801,10	1693,67
801,28	1773,54
801,46	1636,33
801,63	1694,49
801,81	1711,28
801,99	1653,12
802,17	1656,81
802,34	1781,32
802,52	1590,45
802,70	1762,89
802,88	1715,38
803,05	1766,58
803,23	1636,33
803,41	1660,08
803,58	1721,93
803,76	1724,39
803,94	1762,07
804,12	1739,14
804,29	1732,99
804,47	1769,45
804,65	1726,85
804,82	1663,36
805,00	1687,12
805,18	1674,01
805,35	1612,57
805,53	1705,14
805,71	1695,72
805,89	1697,36
806,06	1761,66
806,24	1616,67
806,42	1660,90
806,59	1654,76
806,77	1767,81
806,95	1652,71
807,12	1697,36
807,30	1781,73
807,48	1605,61
807,65	1563,01
807,83	1690,80
808,01	1695,72
808,18	1685,48
808,36	1739,95
808,54	1581,44
808,71	1703,09
808,89	1698,59
809,07	1737,50
809,24	1753,88
809,42	1819,01
809,60	1618,30
809,77	1728,49
809,95	1732,17
810,13	1655,58
810,30	1688,76
810,48	1814,09
810,66	1677,29
810,83	1760,43
811,01	1685,89
811,18	1667,87
811,36	1522,05
811,54	1678,11
811,71	1691,21
811,89	1770,67
812,07	1619,53
812,24	1844,81
812,42	1655,99
812,59	1683,43
812,77	1718,25
812,95	1739,14
813,12	1688,76
813,30	1622,81
813,48	1625,68
813,65	1721,11
813,83	1747,33
814,00	1783,78
814,18	1771,90
814,36	1683,02
814,53	1684,66
814,71	1682,61
814,88	1761,25
815,06	1635,92
815,24	1763,30
815,41	1591,27
815,59	1698,18
815,76	1632,23
815,94	1810,40
816,12	1684,25
816,29	1779,28
816,47	1688,76
816,64	1866,52
816,82	1616,67
817,00	1753,06
817,17	1662,54
817,35	1898,47
817,52	1662,54
817,70	1703,91
817,87	1771,49
818,05	1642,47
818,23	1699,40
818,40	1800,57
818,58	1703,50
818,75	1643,29
818,93	1663,36
819,10	1696,95
819,28	1627,73
819,46	1707,19
819,63	1649,84
819,81	1753,47
819,98	1530,24
820,16	1808,36
820,33	1594,14
820,51	1842,76
820,68	1698,18
820,86	1712,51
821,03	1819,42
821,21	1768,22
821,39	1850,95
821,56	1709,23
821,74	1597,83
821,91	1635,10
822,09	1675,65
822,26	1640,01
822,44	1587,99
822,61	1625,68
822,79	1714,56
822,96	1679,33
823,14	1623,63
823,31	1652,30
823,49	1755,11
823,66	1718,66
823,84	1646,16
824,01	1662,13
824,19	1582,67
824,36	1705,55
824,54	1744,05
824,71	1802,21
824,89	1739,54
825,06	1832,11
825,24	1698,99
825,41	1723,57
825,59	1708,83
825,76	1730,94
825,94	1668,28
826,11	1769,45
826,29	1675,24
826,46	1717,43
826,64	1775,18
826,81	1750,19
826,99	1730,94
827,16	1624,04
827,34	1604,38
827,51	1670,32
827,69	1879,22
827,86	1698,18
828,04	1723,57
828,21	1740,36
828,39	1734,63
828,56	1678,92
828,74	1735,45
828,91	1683,43
829,09	1902,97
829,26	1662,95
829,43	1772,72
829,61	1692,03
829,78	1649,02
829,96	1716,61
830,13	1624,45
830,31	1764,53
830,48	1682,61
830,66	1653,53
830,83	1664,59
831,01	1642,06
831,18	1664,18
831,35	1694,90
831,53	1769,44
831,70	1774,77
831,88	1912,80
832,05	1733,81
832,23	1634,28
832,40	1723,57
832,57	1753,88
832,75	1659,26
832,92	1788,29
833,10	1833,75
833,27	1748,97
833,45	1679,33
833,62	1659,26
833,79	1718,25
833,97	1621,99
834,14	1701,86
834,32	1733,40
834,49	1592,91
834,66	1671,96
834,84	1595,37
835,01	1773,13
835,19	1613,80
835,36	1609,70
835,53	1841,12
835,71	1710,05
835,88	1750,19
836,06	1717,02
836,23	1822,28
836,40	1612,16
836,58	1645,34
836,75	1661,72
836,93	1683,84
837,10	1661,72
837,27	1717,43
837,45	1667,05
837,62	1605,20
837,79	1627,73
837,97	1773,54
838,14	1652,71
838,32	1700,22
838,49	1639,19
838,66	1731,35
838,84	1737,91
839,01	1781,32
839,18	1732,99
839,36	1622,81
839,53	1640,42
839,70	1753,06
839,88	1658,85
840,05	1783,78
840,23	1684,25
840,40	1639,19
840,57	1728,90
840,75	1713,33
840,92	1812,04
841,09	1744,05
841,27	1733,40
841,44	1683,02
841,61	1787,88
841,79	1708,01
841,96	1686,30
842,13	1589,22
842,31	1712,51
842,48	1694,90
842,65	1640,01
842,83	1714,97
843,00	1695,31
843,17	1669,50
843,35	1781,32
843,52	1626,09
843,69	1744,46
843,86	1675,65
844,04	1656,40
844,21	1673,19
844,38	1741,59
844,56	1724,39
844,73	1716,61
844,90	1751,42
845,08	1705,96
845,25	1694,49
845,42	1709,64
845,60	1712,10
845,77	1659,67
845,94	1656,81
846,11	1723,16
846,29	1827,20
846,46	1682,61
846,63	1687,12
846,81	1776,41
846,98	1717,02
847,15	1674,42
847,32	1730,94
847,50	1583,90
847,67	1713,33
847,84	1718,25
848,01	1761,66
848,19	1685,89
848,36	1700,22
848,53	1600,69
848,71	1773,13
848,88	1670,73
849,05	1604,79
849,22	1670,32
849,40	1624,04
849,57	1767,81
849,74	1753,47
849,91	1664,18
850,09	1637,97
850,26	1666,64
850,43	1672,78
850,60	1671,96
850,78	1687,12
850,95	1705,96
851,12	1645,34
851,29	1721,52
851,47	1808,77
851,64	1683,43
851,81	1691,62
851,98	1667,05
852,15	1838,26
852,33	1590,04
852,50	1659,26
852,67	1727,67
852,84	1671,55
853,02	1767,40
853,19	1827,61
853,36	1642,06
853,53	1610,11
853,70	1860,37
853,88	1814,09
854,05	1760,43
854,22	1649,84
854,39	1781,73
854,56	1759,21
854,74	1594,14
854,91	1754,70
855,08	1571,20
855,25	1711,69
855,42	1634,69
855,60	1710,46
855,77	1730,94
855,94	1847,68
856,11	1644,93
856,28	1700,22
856,46	1792,79
856,63	1664,18
856,80	1636,74
856,97	1824,33
857,14	1747,74
857,31	1668,28
857,49	1696,95
857,66	1731,35
857,83	1603,97
858,00	1680,56
858,17	1673,60
858,34	1721,93
858,52	1615,44
858,69	1665,82
858,86	1694,08
859,03	1650,25
859,20	1770,67
859,37	1708,83
859,55	1646,98
859,72	1706,78
859,89	1700,63
860,06	1798,53
860,23	1776,41
860,40	1644,52
860,57	1746,51
860,75	1591,68
860,92	1760,02
861,09	1762,89
861,26	1803,03
861,43	1701,45
861,60	1696,95
861,77	1640,42
861,95	1636,33
862,12	1763,30
862,29	1647,39
862,46	1736,27
862,63	1760,02
862,80	1790,33
862,97	1838,26
863,14	1659,67
863,31	1816,96
863,49	1720,70
863,66	1747,74
863,83	1747,74
864,00	1821,05
864,17	1659,67
864,34	1705,96
864,51	1623,22
864,68	1719,06
864,85	1644,11
865,02	1668,68
865,20	1760,02
865,37	1644,52
865,54	1686,71
865,71	1742,41
865,88	1662,95
866,05	1637,15
866,22	1709,64
866,39	1692,44
866,56	1632,23
866,73	1690,39
866,90	1862,42
867,07	1751,42
867,25	1632,64
867,42	1849,32
867,59	1671,96
867,76	1757,57
867,93	1667,87
868,10	1759,61
868,27	1619,94
868,44	1750,60
868,61	1694,49
868,78	1736,27
868,95	1651,89
869,12	1774,36
869,29	1742,82
869,46	1738,32
869,63	1713,33
869,80	1610,11
869,97	1788,29
870,14	1757,16
870,32	1707,60
870,49	1701,86
870,66	1812,86
870,83	1729,71
871,00	1706,37
871,17	1653,12
871,34	1689,57
871,51	1668,28
871,68	1652,71
871,85	1737,09
872,02	1833,34
872,19	1689,98
872,36	1642,06
872,53	1755,93
872,70	1723,57
872,87	1653,94
873,04	1616,26
873,21	1630,59
873,38	1644,11
873,55	1797,30
873,72	1712,92
873,89	1718,25
874,06	1610,52
874,23	1581,85
874,40	1635,10
874,57	1688,35
874,74	1836,21
874,91	1584,31
875,08	1632,23
875,25	1724,80
875,42	1753,88
875,59	1725,62
875,76	1737,09
875,93	1697,36
876,10	1841,94
876,27	1629,77
876,44	1898,06
876,61	1730,53
876,78	1699,40
876,95	1730,94
877,12	1655,17
877,29	1693,26
877,46	1689,98
877,62	1700,63
877,79	1617,90
877,96	1753,47
878,13	1661,31
878,30	1696,54
878,47	1772,31
878,64	1747,74
878,81	1746,10
878,98	1660,49
879,15	1809,99
879,32	1777,64
879,49	1799,35
879,66	1759,61
879,83	1654,35
880,00	1839,90
880,17	1621,99
880,34	1727,26
880,51	1641,65
880,67	1809,59
880,84	1551,95
881,01	1713,33
881,18	1806,72
881,35	1663,77
881,52	1868,16
881,69	1693,67
881,86	1864,06
882,03	1693,67
882,20	1739,95
882,37	1717,43
882,54	1804,67
882,70	1730,53
882,87	1653,12
883,04	1796,89
883,21	1762,07
883,38	1642,47
883,55	1728,90
883,72	1648,61
883,89	1635,51
884,06	1650,25
884,23	1619,94
884,39	1612,16
884,56	1766,99
884,73	1774,77
884,90	1687,12
885,07	1779,28
885,24	1688,35
885,41	1853,41
885,58	1696,95
885,74	1653,53
885,91	1746,10
886,08	1741,59
886,25	1642,47
886,42	1680,97
886,59	1726,03
886,76	1640,42
886,93	1567,52
887,09	1843,17
887,26	1970,15
887,43	1721,52
887,60	1686,30
887,77	1761,66
887,94	1769,04
888,10	1949,26
888,27	1828,02
888,44	1748,97
888,61	1592,50
888,78	1625,68
888,95	1754,29
889,12	1626,50
889,28	1732,99
889,45	1703,91
889,62	1676,47
889,79	1692,44
889,96	1744,87
890,13	1696,95
890,29	1701,04
890,46	1868,98
890,63	1756,75
890,80	1746,92
890,97	1694,90
891,13	1648,21
891,30	1782,55
891,47	1842,35
891,64	1644,93
891,81	1651,89
891,98	1698,59
892,14	1718,25
892,31	1626,09
892,48	1661,72
892,65	1654,35
892,82	1702,27
892,98	1599,05
893,15	1734,63
893,32	1746,51
>>>>>End Processed Spectral Data<<<<<
