SpectraSuite Datei
++++++++++++++++++++++++++++++++++++
Datum: Mon Mar 09 11:48:37 CET 2020
Benutzer: Lichtquellen1
Dark-Spektrum vorhanden: Nein
Referenz-Spektrum vorhanden: Nein
Zahl der probierten Teilspektren: 1
Spektrometer: USB4F05832
Integrationszeit (usec): 200000 (USB4F05832)
Spektren Durchschnitt berechnet: 5 (USB4F05832)
Boxcar Glättung: 0 (USB4F05832)
Dunkelstromkorrektur: Nein (USB4F05832)
Puls/Lampe aktiviert: Nein (USB4F05832)
Correct for Detector Non-linearity: Nein (USB4F05832)
Streulichtkorrektur: Nein (USB4F05832)
Anzahl Pixel in verarbeitetem Spektrum: 3648
>>>>>Begin Processed Spectral Data<<<<<
177,54	1359,44
177,75	1359,44
177,97	1359,44
178,19	1345,52
178,41	1370,09
178,63	1721,93
178,85	1511,81
179,07	1613,39
179,29	1659,67
179,51	1502,39
179,73	1678,11
179,95	1611,75
180,17	1633,05
180,39	1757,16
180,61	1689,57
180,83	1776,41
181,05	1590,45
181,27	1653,94
181,49	1643,29
181,71	1649,84
181,92	1905,02
182,14	1700,22
182,36	1628,14
182,58	1759,21
182,80	1605,20
183,02	1857,51
183,24	1783,78
183,46	1712,51
183,68	1620,76
183,90	1703,91
184,12	1595,78
184,34	1775,18
184,56	1666,23
184,78	1637,15
185,00	1683,84
185,21	1782,55
185,43	1610,52
185,65	1709,64
185,87	1625,27
186,09	1842,35
186,31	1694,90
186,53	1701,86
186,75	1708,42
186,97	1826,38
187,19	1834,16
187,41	1593,73
187,63	1803,44
187,84	1542,94
188,06	1747,33
188,28	1643,29
188,50	1701,45
188,72	1848,09
188,94	1735,04
189,16	1564,65
189,38	1665,00
189,60	1699,81
189,82	1660,08
190,03	1749,37
190,25	1687,53
190,47	1701,86
190,69	1694,90
190,91	1588,81
191,13	1704,32
191,35	1808,36
191,57	1645,75
191,79	1677,70
192,01	1727,67
192,22	1794,84
192,44	1586,77
192,66	1714,15
192,88	1667,87
193,10	1674,01
193,32	1640,42
193,54	1828,43
193,76	1793,20
193,98	1654,35
194,19	1784,60
194,41	1687,53
194,63	1589,63
194,85	1720,29
195,07	1774,36
195,29	1565,06
195,51	1779,28
195,73	1666,23
195,94	1642,88
196,16	1679,74
196,38	1858,33
196,60	1655,17
196,82	1635,10
197,04	1654,35
197,26	1614,62
197,48	1627,73
197,69	1707,60
197,91	1577,76
198,13	1617,49
198,35	1694,90
198,57	1646,57
198,79	1770,67
199,01	1741,18
199,22	1662,95
199,44	1771,08
199,66	1717,02
199,88	1672,37
200,10	1744,87
200,32	1757,16
200,54	1722,75
200,75	1847,68
200,97	1624,86
201,19	1787,06
201,41	1760,02
201,63	1650,66
201,85	1616,26
202,06	1824,74
202,28	1705,96
202,50	1689,16
202,72	1532,29
202,94	1617,90
203,16	1638,38
203,38	1689,57
203,59	1705,55
203,81	1758,80
204,03	1568,33
204,25	1687,12
204,47	1796,89
204,69	1684,25
204,90	1640,42
205,12	1705,14
205,34	1725,62
205,56	1684,25
205,78	1644,93
206,00	1869,80
206,21	1775,18
206,43	1635,10
206,65	1732,17
206,87	1660,08
207,09	1714,56
207,30	1584,31
207,52	1783,78
207,74	1723,16
207,96	1647,39
208,18	1649,84
208,40	1683,84
208,61	1676,47
208,83	1702,68
209,05	1572,02
209,27	1540,48
209,49	1745,28
209,70	1761,25
209,92	1714,15
210,14	1613,80
210,36	1620,35
210,58	1694,08
210,79	1715,79
211,01	1573,25
211,23	1754,29
211,45	1762,07
211,67	1730,12
211,88	1567,52
212,10	1751,01
212,32	1592,91
212,54	1674,42
212,76	1681,79
212,97	1580,21
213,19	1592,09
213,41	1766,99
213,63	1621,17
213,85	1645,75
214,06	1578,98
214,28	1829,25
214,50	1638,38
214,72	1723,57
214,94	1735,04
215,15	1631,00
215,37	1672,37
215,59	1653,94
215,81	1777,23
216,02	1657,22
216,24	1719,88
216,46	1603,97
216,68	1692,44
216,90	1692,44
217,11	1772,31
217,33	1576,94
217,55	1780,50
217,77	1698,99
217,98	1745,28
218,20	1712,10
218,42	1786,24
218,64	1710,87
218,85	1812,45
219,07	1700,63
219,29	1686,30
219,51	1772,31
219,73	1628,14
219,94	1685,07
220,16	1800,16
220,38	1703,50
220,60	1672,78
220,81	1577,35
221,03	1589,22
221,25	1747,74
221,47	1570,38
221,68	1650,66
221,90	1730,53
222,12	1663,36
222,34	1703,09
222,55	1725,62
222,77	1809,59
222,99	1661,72
223,21	1687,94
223,42	1782,96
223,64	1728,90
223,86	1683,84
224,08	1680,15
224,29	1803,03
224,51	1683,02
224,73	1678,92
224,94	1732,99
225,16	1670,32
225,38	1689,57
225,60	1705,55
225,81	1647,39
226,03	1640,42
226,25	1589,22
226,47	1705,96
226,68	1748,97
226,90	1711,69
227,12	1723,16
227,33	1706,37
227,55	1670,73
227,77	1590,04
227,99	1796,89
228,20	1696,13
228,42	1712,92
228,64	1705,96
228,86	1658,04
229,07	1667,05
229,29	1593,32
229,51	1514,68
229,72	1824,33
229,94	1701,04
230,16	1706,78
230,38	1622,40
230,59	1646,57
230,81	1785,83
231,03	1697,77
231,24	1646,98
231,46	1635,92
231,68	1641,24
231,89	1672,78
232,11	1609,29
232,33	1728,90
232,55	1712,51
232,76	1734,63
232,98	1671,55
233,20	1610,93
233,41	1555,23
233,63	1688,35
233,85	1675,65
234,06	1644,52
234,28	1717,43
234,50	1610,52
234,71	1728,49
234,93	1821,46
235,15	1681,79
235,37	1540,89
235,58	1700,22
235,80	1647,80
236,02	1602,33
236,23	1694,90
236,45	1631,41
236,67	1731,35
236,88	1691,62
237,10	1753,06
237,32	1767,81
237,53	1719,06
237,75	1685,89
237,97	1548,26
238,18	1674,83
238,40	1715,79
238,62	1624,86
238,83	1635,10
239,05	1648,61
239,27	1663,36
239,48	1587,18
239,70	1631,82
239,92	1801,39
240,13	1795,25
240,35	1627,32
240,57	1710,46
240,78	1739,54
241,00	1581,44
241,22	1669,91
241,43	1847,27
241,65	1646,57
241,87	1797,30
242,08	1895,19
242,30	1591,27
242,52	1684,66
242,73	1762,48
242,95	1609,29
243,16	1682,61
243,38	1830,47
243,60	1675,24
243,81	1741,59
244,03	1769,45
244,25	1566,29
244,46	1669,91
244,68	1599,87
244,90	1723,57
245,11	1585,13
245,33	1701,45
245,55	1726,03
245,76	1707,60
245,98	1665,82
246,19	1842,76
246,41	1821,87
246,63	1762,07
246,84	1787,88
247,06	1691,21
247,28	1708,83
247,49	1680,15
247,71	1637,15
247,92	1710,46
248,14	1770,26
248,36	1737,91
248,57	1820,64
248,79	1813,68
249,01	1679,33
249,22	1698,99
249,44	1718,66
249,65	1663,77
249,87	1701,86
250,09	1737,50
250,30	1701,04
250,52	1677,29
250,73	1760,84
250,95	1618,30
251,17	1719,88
251,38	1662,95
251,60	1601,10
251,81	1804,67
252,03	1859,97
252,25	1560,55
252,46	1620,35
252,68	1773,13
252,89	1695,31
253,11	1716,61
253,33	1716,61
253,54	1567,52
253,76	1726,44
253,97	1767,40
254,19	1732,58
254,41	1599,46
254,62	1757,16
254,84	1753,47
255,05	1720,70
255,27	1750,60
255,49	1822,69
255,70	1779,28
255,92	1651,89
256,13	1663,36
256,35	1761,25
256,56	1764,12
256,78	1739,14
257,00	1768,63
257,21	1665,41
257,43	1617,49
257,64	1701,86
257,86	1803,85
258,08	1694,08
258,29	1804,67
258,51	1641,24
258,72	1723,16
258,94	1794,02
259,15	1727,67
259,37	1710,05
259,59	1603,97
259,80	1726,85
260,02	1667,46
260,23	1692,44
260,45	1610,93
260,66	1719,88
260,88	1674,01
261,09	1674,01
261,31	1649,43
261,53	1787,06
261,74	1795,25
261,96	1550,72
262,17	1619,53
262,39	1713,33
262,60	1677,29
262,82	1669,50
263,03	1672,78
263,25	1753,88
263,46	1651,89
263,68	1717,84
263,90	1687,94
264,11	1620,35
264,33	1816,55
264,54	1748,97
264,76	1708,42
264,97	1762,89
265,19	1638,38
265,40	1787,47
265,62	1668,68
265,83	1749,37
266,05	1690,39
266,26	1652,71
266,48	1879,22
266,70	1820,23
266,91	1566,29
267,13	1733,81
267,34	1616,67
267,56	1711,28
267,77	1664,18
267,99	1655,58
268,20	1839,49
268,42	1708,01
268,63	1581,44
268,85	1893,14
269,06	1804,26
269,28	1736,68
269,49	1693,67
269,71	1749,78
269,92	1661,72
270,14	1601,92
270,35	1672,37
270,57	1748,97
270,78	1717,84
271,00	1719,06
271,21	1902,15
271,43	1610,11
271,64	1638,37
271,86	1822,28
272,07	1579,80
272,29	1817,37
272,50	1644,52
272,72	1812,45
272,93	1764,94
273,15	1812,45
273,36	1762,07
273,58	1701,86
273,79	1690,80
274,01	1682,20
274,22	1626,09
274,44	1693,67
274,65	1734,63
274,87	1749,37
275,08	1763,30
275,30	1753,88
275,51	1929,60
275,73	1860,37
275,94	1625,27
276,16	1668,28
276,37	1701,04
276,59	1702,68
276,80	1671,14
277,02	1730,94
277,23	1652,30
277,45	1719,47
277,66	1529,42
277,88	1748,56
278,09	1875,53
278,30	1739,14
278,52	1617,90
278,73	1855,87
278,95	1701,86
279,16	1831,70
279,38	1747,74
279,59	1717,02
279,81	1655,17
280,02	1700,63
280,24	1624,86
280,45	1721,11
280,67	1835,39
280,88	1765,35
281,09	1606,84
281,31	1641,24
281,52	1669,50
281,74	1860,78
281,95	1690,39
282,17	1696,95
282,38	1784,60
282,60	1694,49
282,81	1792,79
283,02	1641,24
283,24	1631,41
283,45	1824,74
283,67	1601,10
283,88	1752,24
284,10	1660,49
284,31	1744,05
284,53	1686,30
284,74	1681,79
284,95	1712,92
285,17	1730,94
285,38	1649,43
285,60	1616,67
285,81	1655,17
286,03	1721,52
286,24	1769,04
286,45	1825,15
286,67	1708,83
286,88	1695,31
287,10	1787,47
287,31	1584,31
287,53	1739,14
287,74	1760,43
287,95	1614,21
288,17	1776,82
288,38	1753,88
288,60	1629,77
288,81	1639,60
289,02	1640,83
289,24	1798,12
289,45	1670,73
289,67	1719,88
289,88	1694,49
290,10	1768,63
290,31	1714,15
290,52	1649,43
290,74	1689,16
290,95	1780,09
291,17	1720,29
291,38	1641,24
291,59	1650,25
291,81	1665,41
292,02	1674,01
292,24	1744,87
292,45	1708,83
292,66	1748,97
292,88	1779,68
293,09	1701,86
293,31	1703,91
293,52	1660,90
293,73	1606,43
293,95	1713,33
294,16	1780,91
294,37	1724,39
294,59	1801,80
294,80	1843,17
295,02	1696,13
295,23	1575,71
295,44	1770,26
295,66	1633,87
295,87	1756,75
296,09	1675,65
296,30	1732,99
296,51	1653,94
296,73	1653,94
296,94	1655,58
297,15	1645,34
297,37	1645,34
297,58	1674,01
297,79	1730,12
298,01	1695,72
298,22	1796,48
298,44	1633,05
298,65	1704,73
298,86	1793,61
299,08	1648,21
299,29	1691,62
299,50	1685,07
299,72	1652,30
299,93	1737,50
300,14	1760,02
300,36	1605,20
300,57	1594,55
300,79	1679,33
301,00	1778,05
301,21	1608,07
301,43	1675,65
301,64	1644,93
301,85	1658,85
302,07	1776,41
302,28	1637,97
302,49	1812,45
302,71	1713,74
302,92	1751,42
303,13	1780,09
303,35	1690,80
303,56	1752,65
303,77	1592,91
303,99	1728,90
304,20	1724,39
304,41	1643,70
304,63	1672,37
304,84	1771,90
305,05	1809,18
305,27	1755,52
305,48	1770,26
305,69	1698,18
305,91	1735,04
306,12	1702,27
306,33	1729,71
306,55	1663,36
306,76	1652,30
306,97	1653,12
307,19	1681,38
307,40	1791,56
307,61	1767,40
307,82	1680,56
308,04	1810,81
308,25	1728,49
308,46	1702,27
308,68	1694,90
308,89	1821,87
309,10	1695,72
309,32	1658,04
309,53	1679,33
309,74	1724,39
309,96	1644,93
310,17	1676,47
310,38	1644,93
310,59	1729,71
310,81	1673,19
311,02	1707,60
311,23	1719,47
311,45	1679,33
311,66	1685,07
311,87	1662,13
312,09	1816,55
312,30	1709,64
312,51	1768,63
312,72	1740,36
312,94	1795,66
313,15	1697,77
313,36	1744,46
313,58	1667,87
313,79	1871,43
314,00	1697,36
314,21	1642,06
314,43	1724,80
314,64	1685,48
314,85	1633,87
315,06	1640,01
315,28	1796,48
315,49	1774,77
315,70	1696,54
315,92	1800,16
316,13	1861,19
316,34	1791,15
316,55	1745,69
316,77	1626,50
316,98	1845,63
317,19	1662,13
317,40	1536,39
317,62	1591,27
317,83	1803,03
318,04	1675,65
318,25	1661,31
318,47	1651,89
318,68	1756,34
318,89	1769,45
319,11	1660,08
319,32	1692,44
319,53	1802,21
319,74	1751,42
319,96	1757,98
320,17	1713,74
320,38	1589,22
320,59	1814,50
320,81	1745,69
321,02	1702,27
321,23	1686,71
321,44	1777,64
321,65	1689,57
321,87	1714,97
322,08	1829,66
322,29	1710,46
322,50	1634,28
322,72	1676,47
322,93	1676,88
323,14	1615,44
323,35	1675,65
323,57	1803,44
323,78	1708,01
323,99	1705,14
324,20	1805,90
324,41	1608,47
324,63	1757,98
324,84	1689,57
325,05	1748,56
325,26	1772,31
325,48	1744,87
325,69	1683,43
325,90	1678,52
326,11	1698,59
326,32	1661,72
326,54	1738,32
326,75	1666,23
326,96	1687,53
327,17	1752,24
327,39	1744,87
327,60	1729,71
327,81	1730,53
328,02	1675,65
328,23	1698,59
328,45	1793,61
328,66	1652,30
328,87	1739,14
329,08	1750,60
329,29	1756,75
329,51	1676,88
329,72	1656,81
329,93	1749,37
330,14	1599,05
330,35	1713,74
330,56	1642,88
330,78	1734,63
330,99	1714,56
331,20	1748,97
331,41	1827,20
331,62	1643,29
331,84	1671,96
332,05	1699,40
332,26	1772,72
332,47	1742,41
332,68	1662,13
332,90	1668,28
333,11	1628,54
333,32	1826,38
333,53	1752,24
333,74	1572,84
333,95	1769,45
334,17	1703,50
334,38	1696,54
334,59	1649,43
334,80	1674,83
335,01	1810,81
335,22	1715,79
335,44	1718,25
335,65	1620,35
335,86	1767,81
336,07	1693,26
336,28	1662,13
336,49	1673,60
336,71	1647,80
336,92	1832,11
337,13	1710,87
337,34	1648,61
337,55	1872,25
337,76	1678,52
337,97	1769,04
338,19	1723,57
338,40	1653,12
338,61	1743,64
338,82	1744,46
339,03	1743,23
339,24	1614,62
339,45	1630,18
339,67	1740,77
339,88	1698,18
340,09	1730,94
340,30	1656,81
340,51	1828,43
340,72	1723,98
340,93	1586,77
341,15	1736,68
341,36	1848,50
341,57	1678,92
341,78	1642,88
341,99	1755,93
342,20	1785,83
342,41	1652,30
342,62	1882,49
342,84	1590,86
343,05	1802,62
343,26	1653,94
343,47	1759,21
343,68	1585,13
343,89	1695,31
344,10	1704,73
344,31	1669,09
344,53	1592,91
344,74	1710,46
344,95	1651,07
345,16	1662,13
345,37	1772,31
345,58	1729,71
345,79	1596,60
346,00	1589,22
346,21	1621,58
346,42	1653,12
346,64	1686,30
346,85	1728,90
347,06	1734,22
347,27	1637,97
347,48	1827,61
347,69	1775,59
347,90	1666,64
348,11	1777,64
348,32	1645,34
348,53	1683,84
348,75	1590,86
348,96	1700,63
349,17	1585,13
349,38	1650,66
349,59	1687,53
349,80	1611,75
350,01	1863,24
350,22	1777,64
350,43	1696,54
350,64	1751,42
350,85	1779,68
351,06	1618,30
351,28	1639,19
351,49	1608,88
351,70	1689,57
351,91	1608,47
352,12	1662,54
352,33	1680,56
352,54	1597,83
352,75	1626,91
352,96	1637,15
353,17	1708,42
353,38	1725,21
353,59	1785,42
353,80	1851,77
354,01	1765,35
354,22	1640,83
354,44	1637,97
354,65	1830,06
354,86	1650,66
355,07	1635,92
355,28	1552,77
355,49	1626,50
355,70	1597,83
355,91	1732,58
356,12	1614,62
356,33	1603,56
356,54	1727,67
356,75	1715,79
356,96	1682,20
357,17	1776,41
357,38	1651,89
357,59	1691,21
357,80	1805,90
358,01	1708,42
358,22	1773,13
358,43	1694,08
358,64	1723,16
358,85	1629,36
359,07	1806,31
359,28	1640,83
359,49	1701,86
359,70	1588,40
359,91	1742,41
360,12	1626,09
360,33	1775,18
360,54	1614,21
360,75	1610,52
360,96	1647,80
361,17	1585,54
361,38	1609,70
361,59	1813,27
361,80	1602,33
362,01	1717,02
362,22	1657,63
362,43	1618,30
362,64	1674,83
362,85	1672,37
363,06	1881,67
363,27	1746,10
363,48	1753,47
363,69	1837,85
363,90	1624,86
364,11	1712,51
364,32	1643,29
364,53	1733,81
364,74	1738,32
364,95	1775,59
365,16	1716,61
365,37	1803,44
365,58	1637,15
365,79	1640,01
366,00	1723,98
366,21	1645,75
366,42	1743,64
366,63	1798,94
366,84	1626,50
367,05	1712,51
367,26	1779,28
367,47	1783,37
367,68	1650,25
367,89	1689,16
368,10	1751,42
368,31	1626,50
368,52	1740,36
368,73	1710,87
368,94	1626,09
369,15	1664,59
369,36	1633,05
369,57	1625,27
369,78	1596,19
369,99	1692,85
370,20	1735,04
370,40	1566,29
370,61	1546,63
370,82	1665,00
371,03	1686,71
371,24	1675,65
371,45	1660,90
371,66	1528,60
371,87	1708,01
372,08	1735,86
372,29	1669,91
372,50	1722,34
372,71	1683,43
372,92	1726,44
373,13	1620,35
373,34	1617,08
373,55	1644,11
373,76	1736,27
373,97	1688,35
374,18	1648,21
374,39	1669,50
374,60	1828,84
374,81	1698,18
375,01	1622,40
375,22	1727,67
375,43	1612,57
375,64	1594,96
375,85	1572,84
376,06	1621,58
376,27	1703,91
376,48	1666,64
376,69	1783,37
376,90	1714,97
377,11	1747,74
377,32	1673,60
377,53	1687,53
377,74	1656,40
377,94	1615,03
378,15	1696,54
378,36	1771,49
378,57	1569,15
378,78	1864,88
378,99	1602,33
379,20	1878,40
379,41	1664,18
379,62	1662,13
379,83	1549,49
380,04	1702,68
380,25	1682,20
380,45	1709,23
380,66	1743,64
380,87	1630,59
381,08	1713,33
381,29	1606,02
381,50	1735,04
381,71	1709,23
381,92	1618,71
382,13	1562,19
382,34	1692,03
382,55	1679,74
382,75	1732,17
382,96	1750,19
383,17	1617,90
383,38	1786,24
383,59	1781,32
383,80	1607,66
384,01	1662,54
384,22	1751,42
384,43	1713,74
384,63	1703,09
384,84	1619,12
385,05	1738,73
385,26	1676,06
385,47	1733,81
385,68	1651,89
385,89	1762,89
386,10	1650,66
386,30	1673,19
386,51	1594,14
386,72	1640,42
386,93	1540,89
387,14	1675,65
387,35	1726,03
387,56	1805,90
387,77	1596,19
387,97	1627,32
388,18	1615,44
388,39	1665,00
388,60	1631,41
388,81	1752,24
389,02	1690,39
389,23	1624,45
389,43	1655,17
389,64	1675,65
389,85	1635,10
390,06	1755,93
390,27	1585,95
390,48	1770,26
390,69	1596,60
390,89	1624,86
391,10	1649,02
391,31	1624,45
391,52	1610,93
391,73	1735,86
391,94	1623,63
392,14	1572,02
392,35	1606,43
392,56	1609,29
392,77	1651,48
392,98	1661,72
393,19	1724,80
393,39	1790,33
393,60	1647,80
393,81	1736,27
394,02	1787,06
394,23	1574,07
394,44	1547,85
394,64	1683,43
394,85	1674,83
395,06	1732,99
395,27	1669,50
395,48	1713,74
395,69	1758,39
395,89	1674,42
396,10	1665,00
396,31	1869,80
396,52	1558,09
396,73	1665,00
396,93	1573,66
397,14	1757,57
397,35	1773,54
397,56	1757,57
397,77	1563,01
397,97	1652,71
398,18	1708,42
398,39	1684,66
398,60	1717,84
398,81	1567,52
399,01	1581,85
399,22	1662,13
399,43	1771,49
399,64	1815,73
399,85	1738,32
400,05	1597,01
400,26	1536,39
400,47	1634,28
400,68	1596,19
400,89	1872,25
401,09	1571,61
401,30	1667,87
401,51	1708,01
401,72	1642,88
401,93	1884,54
402,13	1653,94
402,34	1792,79
402,55	1694,08
402,76	1628,54
402,96	1649,43
403,17	1663,36
403,38	1779,28
403,59	1721,93
403,80	1722,75
404,00	1752,24
404,21	1678,11
404,42	1644,52
404,63	1581,85
404,83	1623,63
405,04	1697,77
405,25	1743,64
405,46	1788,29
405,66	1629,36
405,87	1692,44
406,08	1651,07
406,29	1714,15
406,49	1652,71
406,70	1768,63
406,91	1539,66
407,12	1617,49
407,32	1794,84
407,53	1674,83
407,74	1690,80
407,95	1763,30
408,15	1642,88
408,36	1613,39
408,57	1733,40
408,78	1691,62
408,98	1718,25
409,19	1751,83
409,40	1617,90
409,61	1655,17
409,81	1709,64
410,02	1631,00
410,23	1651,07
410,44	1719,47
410,64	1581,85
410,85	1654,76
411,06	1637,56
411,26	1735,04
411,47	1677,70
411,68	1812,45
411,89	1659,67
412,09	1641,65
412,30	1684,25
412,51	1680,56
412,72	1649,84
412,92	1668,28
413,13	1656,40
413,34	1621,58
413,54	1640,83
413,75	1681,79
413,96	1674,42
414,17	1627,73
414,37	1721,93
414,58	1802,62
414,79	1674,01
414,99	1720,70
415,20	1723,16
415,41	1591,27
415,61	1680,97
415,82	1736,68
416,03	1714,15
416,24	1628,95
416,44	1698,99
416,65	1753,88
416,86	1734,22
417,06	1598,23
417,27	1703,09
417,48	1691,62
417,68	1628,95
417,89	1697,36
418,10	1615,03
418,30	1756,34
418,51	1774,36
418,72	1668,28
418,92	1636,33
419,13	1732,17
419,34	1649,43
419,55	1766,17
419,75	2547,26
419,96	1698,59
420,17	1818,19
420,37	1641,24
420,58	1738,73
420,79	1626,09
420,99	1674,01
421,20	1837,44
421,41	1670,73
421,61	1696,13
421,82	1635,10
422,03	1700,63
422,23	1647,39
422,44	1673,19
422,65	1767,40
422,85	1584,31
423,06	1728,49
423,26	1707,19
423,47	1740,77
423,68	1749,37
423,88	1698,59
424,09	1693,67
424,30	1689,16
424,50	1562,60
424,71	1624,45
424,92	1723,98
425,12	1855,87
425,33	1742,41
425,54	1656,81
425,74	1655,17
425,95	1773,13
426,15	1532,29
426,36	1610,52
426,57	1720,29
426,77	1709,23
426,98	1606,43
427,19	1584,31
427,39	1606,43
427,60	1776,41
427,81	1687,53
428,01	1707,60
428,22	1661,31
428,42	1683,84
428,63	1625,27
428,84	1618,30
429,04	1653,12
429,25	1641,65
429,45	1529,01
429,66	1776,41
429,87	1631,41
430,07	1831,29
430,28	1707,60
430,49	1754,29
430,69	1656,81
430,90	1628,54
431,10	1626,09
431,31	1812,45
431,52	1705,14
431,72	1662,13
431,93	1714,97
432,13	1739,95
432,34	1653,94
432,55	1642,47
432,75	1632,64
432,96	1714,97
433,16	1728,90
433,37	1675,65
433,58	1601,10
433,78	1652,71
433,99	1612,57
434,19	1547,85
434,40	1658,45
434,60	1585,54
434,81	1650,25
435,02	1588,40
435,22	1603,15
435,43	1668,68
435,63	1669,50
435,84	1638,78
436,05	1747,74
436,25	1639,60
436,46	1744,05
436,66	1675,24
436,87	1712,92
437,07	1606,02
437,28	1699,81
437,48	1643,29
437,69	1581,44
437,90	1685,48
438,10	1651,89
438,31	1731,76
438,51	1602,33
438,72	1727,67
438,92	1581,85
439,13	1717,84
439,34	1678,52
439,54	1730,12
439,75	1646,98
439,95	1677,70
440,16	1607,25
440,36	1871,43
440,57	1739,95
440,77	1764,12
440,98	1649,43
441,18	1599,05
441,39	1708,01
441,60	1615,03
441,80	1683,02
442,01	1665,41
442,21	1712,10
442,42	1714,15
442,62	1711,28
442,83	1511,81
443,03	1657,63
443,24	1728,90
443,44	1685,07
443,65	1605,61
443,85	1655,99
444,06	1691,62
444,26	1735,45
444,47	1592,50
444,67	1627,73
444,88	1699,40
445,09	1712,92
445,29	1640,01
445,50	1816,14
445,70	1595,78
445,91	1628,54
446,11	1564,24
446,32	1690,39
446,52	1682,61
446,73	1631,00
446,93	1650,25
447,14	1648,21
447,34	1656,40
447,55	1563,42
447,75	1686,71
447,96	1757,57
448,16	1742,82
448,37	1656,40
448,57	1608,07
448,78	1673,60
448,98	1648,21
449,19	1762,48
449,39	1692,85
449,60	1667,87
449,80	1628,14
450,01	1632,23
450,21	1621,58
450,42	1735,04
450,62	1612,98
450,83	1601,51
451,03	1686,30
451,23	1638,38
451,44	1752,24
451,64	1633,46
451,85	1693,67
452,05	1710,05
452,26	1714,15
452,46	1660,49
452,67	1738,73
452,87	1630,59
453,08	1683,43
453,28	1622,40
453,49	1651,89
453,69	1705,96
453,90	1692,44
454,10	1755,11
454,31	1728,08
454,51	1672,78
454,71	1664,59
454,92	1673,60
455,12	1531,06
455,33	1556,87
455,53	1796,89
455,74	1609,70
455,94	1711,69
456,15	1733,40
456,35	1741,18
456,55	1583,49
456,76	1685,07
456,96	1618,71
457,17	1540,48
457,37	1739,54
457,58	1710,05
457,78	1619,12
457,99	1650,66
458,19	1686,71
458,39	1666,64
458,60	1692,03
458,80	1592,09
459,01	1647,39
459,21	1578,57
459,42	1695,72
459,62	1748,97
459,82	1641,24
460,03	1633,46
460,23	1702,27
460,44	1653,12
460,64	1633,87
460,85	1668,28
461,05	1597,83
461,25	1579,39
461,46	1604,79
461,66	1625,68
461,87	1640,42
462,07	1725,62
462,27	1753,47
462,48	1742,82
462,68	1597,01
462,89	1535,98
463,09	2376,87
463,29	1723,98
463,50	1733,81
463,70	1521,64
463,91	1651,48
464,11	1713,74
464,31	1702,68
464,52	1776,00
464,72	1785,83
464,93	1538,02
465,13	1698,59
465,33	1696,54
465,54	1617,49
465,74	1777,64
465,95	1656,81
466,15	1572,43
466,35	1585,54
466,56	1694,49
466,76	1697,36
466,96	1679,74
467,17	1728,08
467,37	1776,41
467,58	1665,00
467,78	1644,52
467,98	1683,84
468,19	1589,22
468,39	1659,67
468,59	1734,63
468,80	1767,40
469,00	1574,89
469,21	1617,49
469,41	1644,52
469,61	1663,77
469,82	1635,10
470,02	1757,98
470,22	1603,56
470,43	1656,81
470,63	1644,11
470,83	1559,73
471,04	1540,07
471,24	1649,84
471,45	1770,26
471,65	1832,11
471,85	1717,02
472,06	1651,48
472,26	1764,53
472,46	1649,84
472,67	1855,46
472,87	1558,50
473,07	1676,88
473,28	1632,23
473,48	1711,28
473,68	1807,13
473,89	1632,23
474,09	1738,73
474,29	1590,86
474,50	1694,49
474,70	1611,75
474,90	1834,98
475,11	1650,66
475,31	1789,52
475,51	1702,68
475,72	1726,03
475,92	1635,92
476,12	1628,95
476,33	1823,51
476,53	1694,08
476,73	1586,77
476,93	1635,92
477,14	1661,72
477,34	1723,57
477,54	1752,65
477,75	1631,00
477,95	1621,99
478,15	1732,17
478,36	1719,47
478,56	1624,04
478,76	1689,57
478,97	1625,27
479,17	1628,14
479,37	1633,87
479,57	1692,03
479,78	1649,02
479,98	1680,97
480,18	1713,74
480,39	1660,49
480,59	1682,61
480,79	1709,23
480,99	1639,19
481,20	1619,94
481,40	1874,71
481,60	1662,13
481,81	1757,16
482,01	1699,81
482,21	1640,42
482,41	1632,64
482,62	1635,92
482,82	1640,01
483,02	1827,20
483,23	1550,31
483,43	1730,94
483,63	1678,11
483,83	1670,73
484,04	1845,22
484,24	1690,80
484,44	1637,56
484,64	1675,65
484,85	1669,09
485,05	1624,45
485,25	1679,33
485,45	1552,36
485,66	1724,80
485,86	1594,14
486,06	1640,42
486,26	1710,87
486,47	1663,77
486,67	1579,39
486,87	1699,40
487,07	1736,68
487,28	1601,10
487,48	1633,05
487,68	1593,73
487,88	1646,16
488,09	1686,71
488,29	1719,47
488,49	1690,39
488,69	1684,66
488,90	1705,96
489,10	1657,63
489,30	1651,48
489,50	1660,08
489,71	1795,66
489,91	1683,84
490,11	1692,03
490,31	1688,76
490,52	1684,25
490,72	1599,05
490,92	1787,06
491,12	1681,79
491,32	1649,02
491,53	1670,73
491,73	1671,14
491,93	1601,10
492,13	1690,80
492,33	1608,88
492,54	1689,16
492,74	1759,61
492,94	1662,95
493,14	1678,92
493,35	1632,64
493,55	1631,82
493,75	1661,31
493,95	1676,47
494,15	1671,14
494,36	1700,22
494,56	1704,32
494,76	1635,51
494,96	1655,58
495,16	1643,29
495,37	1809,99
495,57	1555,64
495,77	1703,09
495,97	1665,41
496,17	1611,34
496,37	1731,35
496,58	1734,22
496,78	1631,82
496,98	1580,62
497,18	1768,63
497,38	1710,46
497,59	1867,34
497,79	1569,15
497,99	1794,43
498,19	1689,57
498,39	1819,83
498,59	1643,70
498,80	1764,53
499,00	1707,60
499,20	1630,59
499,40	1596,60
499,60	1706,78
499,80	1710,87
500,01	1615,85
500,21	1701,86
500,41	1704,73
500,61	1758,39
500,81	1673,19
501,01	1723,16
501,22	1641,65
501,42	1597,42
501,62	1688,35
501,82	1778,87
502,02	1653,53
502,22	1642,88
502,42	1719,06
502,63	1852,18
502,83	1720,70
503,03	1667,46
503,23	1616,26
503,43	1643,29
503,63	1842,35
503,83	1789,92
504,04	1669,50
504,24	1657,63
504,44	1674,01
504,64	1644,11
504,84	1785,01
505,04	1658,04
505,24	1610,11
505,44	1634,69
505,65	1758,39
505,85	1848,50
506,05	1664,18
506,25	1642,88
506,45	1695,31
506,65	1603,15
506,85	1526,56
507,05	1749,37
507,26	1700,22
507,46	1780,50
507,66	1615,44
507,86	1564,24
508,06	1662,54
508,26	1567,11
508,46	1656,81
508,66	1682,61
508,86	1762,07
509,06	1696,13
509,27	1738,32
509,47	1709,23
509,67	1600,69
509,87	1714,15
510,07	1748,15
510,27	1660,49
510,47	1780,09
510,67	1755,11
510,87	1696,95
511,07	1669,50
511,28	1671,55
511,48	1791,56
511,68	1669,09
511,88	1585,13
512,08	1583,90
512,28	1636,33
512,48	1751,83
512,68	1626,91
512,88	1658,04
513,08	1814,09
513,28	1842,76
513,48	1772,31
513,68	1691,21
513,89	1727,67
514,09	1705,14
514,29	1594,14
514,49	1688,35
514,69	1673,60
514,89	1643,70
515,09	1698,59
515,29	1707,19
515,49	1636,74
515,69	1805,08
515,89	1758,39
516,09	1648,21
516,29	1520,41
516,49	1547,85
516,69	1684,66
516,89	1619,53
517,09	1671,55
517,29	1693,26
517,50	1558,50
517,70	1541,71
517,90	1666,64
518,10	1637,15
518,30	1601,51
518,50	1721,11
518,70	1688,76
518,90	1649,84
519,10	1717,43
519,30	1550,72
519,50	1612,98
519,70	1647,39
519,90	1755,52
520,10	1693,26
520,30	1672,78
520,50	1586,77
520,70	1616,26
520,90	1841,12
521,10	1599,46
521,30	1651,07
521,50	1764,94
521,70	1748,97
521,90	1751,83
522,10	1757,98
522,30	1706,37
522,50	1634,28
522,70	1753,47
522,90	1629,36
523,10	1721,11
523,30	1656,40
523,50	1790,33
523,70	1669,91
523,90	1620,35
524,10	1673,60
524,30	1682,20
524,50	1669,50
524,70	1752,24
524,90	1668,68
525,10	1718,66
525,30	1616,26
525,50	1653,12
525,70	1567,92
525,90	1708,42
526,10	1749,37
526,30	1645,34
526,50	1730,94
526,70	1649,84
526,90	1631,41
527,10	1678,92
527,30	1667,87
527,50	1733,40
527,70	1665,41
527,90	1671,14
528,10	1714,97
528,30	1656,40
528,50	1696,13
528,70	1640,83
528,90	1643,29
529,10	1673,60
529,30	1564,65
529,50	1778,87
529,70	1694,90
529,90	1723,98
530,10	1724,39
530,29	1789,52
530,49	1729,30
530,69	1684,25
530,89	1684,25
531,09	1668,28
531,29	1771,49
531,49	1636,33
531,69	1739,14
531,89	1692,85
532,09	1686,71
532,29	1747,33
532,49	1663,77
532,69	1710,46
532,89	1579,80
533,09	1660,08
533,29	1593,32
533,49	1640,83
533,68	1658,85
533,88	1721,11
534,08	1598,23
534,28	1621,99
534,48	1635,10
534,68	1563,83
534,88	1671,55
535,08	1666,64
535,28	1794,02
535,48	1680,15
535,68	1683,43
535,88	1814,50
536,08	1635,10
536,27	1650,25
536,47	1706,78
536,67	1761,25
536,87	1596,60
537,07	1667,87
537,27	1757,98
537,47	1665,82
537,67	1581,03
537,87	1638,78
538,07	1668,68
538,27	1747,74
538,46	1791,15
538,66	1664,18
538,86	1601,51
539,06	1686,30
539,26	1602,74
539,46	1680,15
539,66	1644,11
539,86	1649,43
540,06	1637,15
540,25	1788,70
540,45	1584,72
540,65	1660,90
540,85	1623,63
541,05	1730,94
541,25	1707,19
541,45	1665,00
541,65	1742,00
541,85	1727,26
542,04	1692,85
542,24	1744,46
542,44	1749,37
542,64	1723,98
542,84	1653,94
543,04	1597,01
543,24	1733,81
543,43	1601,51
543,63	1845,63
543,83	1710,05
544,03	1671,55
544,23	1682,20
544,43	1635,92
544,63	1778,87
544,82	1681,38
545,02	1668,68
545,22	1692,44
545,42	1702,27
545,62	1692,03
545,82	1648,61
546,02	1661,72
546,21	1694,08
546,41	1752,24
546,61	1621,17
546,81	1635,51
547,01	1827,20
547,21	1698,99
547,40	1714,97
547,60	1733,81
547,80	1709,64
548,00	1570,79
548,20	1685,48
548,40	1739,54
548,59	1617,49
548,79	1833,75
548,99	1810,81
549,19	1699,40
549,39	1703,09
549,59	1711,69
549,78	1717,43
549,98	1644,93
550,18	1678,92
550,38	1799,75
550,58	1732,58
550,77	1724,80
550,97	1683,84
551,17	1761,25
551,37	1761,25
551,57	1642,88
551,76	1746,92
551,96	1692,44
552,16	1814,09
552,36	1733,40
552,56	1759,21
552,75	1690,80
552,95	1632,64
553,15	1764,53
553,35	1954,58
553,55	1632,64
553,74	1792,79
553,94	1636,74
554,14	1628,95
554,34	1715,38
554,54	1730,94
554,73	1541,30
554,93	1726,03
555,13	1697,77
555,33	1666,23
555,53	1563,83
555,72	1721,52
555,92	1902,15
556,12	1764,53
556,32	1754,29
556,51	1713,74
556,71	1688,35
556,91	1726,44
557,11	1690,39
557,30	1723,16
557,50	1749,78
557,70	1683,84
557,90	1667,46
558,10	1705,96
558,29	1748,15
558,49	1726,85
558,69	1758,39
558,89	1730,94
559,08	1786,65
559,28	1623,63
559,48	1653,53
559,68	1734,22
559,87	1821,05
560,07	1705,55
560,27	1703,09
560,47	1692,44
560,66	1668,28
560,86	1715,38
561,06	1739,54
561,25	1603,15
561,45	1701,86
561,65	1639,19
561,85	1667,46
562,04	1740,36
562,24	1708,42
562,44	1653,94
562,64	1818,60
562,83	1951,71
563,03	1825,15
563,23	1658,04
563,42	1708,42
563,62	1572,43
563,82	1684,66
564,02	1643,29
564,21	1712,10
564,41	1640,83
564,61	1745,28
564,80	1676,47
565,00	1779,28
565,20	1697,77
565,40	1899,70
565,59	1628,54
565,79	1741,18
565,99	1786,24
566,18	1768,22
566,38	1762,89
566,58	1703,91
566,78	1668,28
566,97	1761,25
567,17	1829,25
567,37	1656,81
567,56	1808,77
567,76	1800,16
567,96	1703,50
568,15	1735,45
568,35	1741,59
568,55	1769,04
568,74	1711,28
568,94	1702,27
569,14	1717,02
569,33	1643,70
569,53	1661,31
569,73	1719,06
569,92	1877,17
570,12	1759,21
570,32	1714,97
570,52	1669,09
570,71	1737,50
570,91	1902,15
571,11	1687,94
571,30	1769,44
571,50	1698,18
571,70	1840,30
571,89	1814,50
572,09	1843,17
572,28	1627,73
572,48	1616,26
572,68	1649,43
572,87	1739,54
573,07	1790,74
573,27	1864,47
573,46	1842,35
573,66	1741,59
573,86	1747,33
574,05	1762,48
574,25	1665,00
574,45	1724,80
574,64	1824,74
574,84	2018,48
575,04	1808,36
575,23	1849,32
575,43	1742,00
575,62	1755,11
575,82	1845,63
576,02	1689,57
576,21	1760,43
576,41	1699,81
576,61	1848,09
576,80	1812,45
577,00	1753,47
577,19	1685,89
577,39	1843,99
577,59	1844,40
577,78	1852,59
577,98	1805,90
578,18	1793,61
578,37	1796,07
578,57	1838,26
578,76	1855,05
578,96	1803,85
579,16	1816,14
579,35	1830,88
579,55	1718,66
579,74	1907,89
579,94	1692,44
580,14	2031,99
580,33	1836,21
580,53	1805,90
580,72	1869,80
580,92	1857,92
581,12	1756,34
581,31	1853,41
581,51	1937,79
581,70	1805,90
581,90	1787,88
582,10	1934,10
582,29	1895,60
582,49	1806,72
582,68	1809,99
582,88	1828,84
583,07	2092,20
583,27	1922,63
583,47	2036,91
583,66	1901,74
583,86	1822,69
584,05	1897,24
584,25	1864,06
584,44	2020,94
584,64	2034,45
584,84	1737,09
585,03	1914,03
585,23	1820,64
585,42	1874,30
585,62	1849,32
585,81	1829,66
586,01	1966,87
586,20	1968,92
586,40	1952,53
586,60	2068,45
586,79	1954,99
586,99	1984,48
587,18	1974,24
587,38	1811,63
587,57	1840,71
587,77	1905,43
587,96	2074,18
588,16	1974,24
588,35	1965,23
588,55	2097,94
588,75	2141,77
588,94	2023,80
589,14	1983,25
589,33	1945,16
589,53	2113,09
589,72	1957,45
589,92	1967,69
590,11	2063,94
590,31	2118,42
590,50	2196,65
590,70	2172,08
590,89	2162,66
591,09	2191,33
591,28	2296,59
591,48	2103,26
591,67	2287,99
591,87	2081,15
592,06	2181,50
592,26	2147,09
592,45	2204,02
592,65	2313,39
592,84	2111,46
593,04	2141,77
593,23	2241,30
593,43	2150,78
593,62	2260,14
593,82	2287,17
594,01	2193,37
594,21	2342,88
594,40	2242,12
594,60	2208,94
594,79	2305,19
594,99	2366,22
595,18	2239,25
595,38	2410,87
595,57	2374,82
595,77	2438,31
595,96	2510,40
596,16	2423,16
596,35	2422,34
596,55	2453,06
596,74	2522,28
596,94	2449,78
597,13	2503,44
597,33	2446,09
597,52	2482,14
597,72	2463,30
597,91	2704,14
598,11	2509,17
598,30	2551,77
598,50	2635,33
598,69	2574,71
598,88	2616,08
599,08	2625,91
599,27	2696,36
599,47	2611,57
599,66	2789,33
599,86	2731,58
600,05	2770,08
600,25	2827,84
600,44	2853,23
600,64	2929,00
600,83	2866,75
601,02	2974,47
601,22	2919,58
601,41	3030,17
601,61	2991,26
601,80	3008,88
602,00	3003,55
602,19	2978,16
602,38	3018,30
602,58	3009,29
602,77	3069,91
602,97	2983,89
603,16	3201,79
603,36	3210,81
603,55	3300,92
603,74	3195,24
603,94	3172,71
604,13	3432,81
604,33	3312,38
604,52	3277,57
604,72	3410,69
604,91	3447,14
605,10	3412,33
605,30	3425,84
605,49	3668,73
605,69	3688,80
605,88	3624,09
606,07	3715,42
606,27	3871,07
606,46	3786,28
606,66	3762,94
606,85	3731,81
607,04	3817,00
607,24	3831,34
607,43	4043,51
607,63	3946,85
607,82	4022,21
608,01	4043,51
608,21	4055,39
608,40	4205,71
608,60	4162,70
608,79	4233,56
608,98	4318,76
609,18	4442,86
609,37	4549,36
609,57	4427,71
609,76	4581,72
609,95	4468,67
610,15	4581,31
610,34	4764,39
610,53	4655,44
610,73	4808,63
610,92	4826,24
611,11	4929,46
611,31	5081,01
611,50	5040,87
611,70	5171,12
611,89	5212,90
612,08	5385,75
612,28	5345,61
612,47	5554,91
612,66	5499,21
612,86	5783,46
613,05	5777,73
613,24	5906,34
613,44	5920,68
613,63	6001,78
613,82	6213,54
614,02	6272,93
614,21	6357,30
614,41	6428,98
614,60	6728,40
614,79	6598,56
614,99	6971,70
615,18	7006,92
615,37	7149,46
615,57	7343,61
615,76	7459,11
615,95	7503,35
616,15	7710,60
616,34	8118,15
616,53	8259,87
616,73	8299,60
616,92	8483,51
617,11	8711,24
617,30	8855,42
617,50	9115,10
617,69	9409,60
617,88	9728,67
618,08	9917,49
618,27	10037,09
618,46	10375,42
618,66	10486,42
618,85	10764,12
619,04	11106,95
619,24	11540,30
619,43	11743,87
619,62	11876,58
619,82	12162,07
620,01	12436,09
620,20	12732,22
620,39	13058,26
620,59	13462,53
620,78	13812,73
620,97	14258,78
621,17	14615,94
621,36	15077,15
621,55	15337,24
621,74	15780,01
621,94	15956,95
622,13	16733,13
622,32	17047,29
622,52	17397,90
622,71	17848,05
622,90	18392,81
623,09	18778,24
623,29	19123,93
623,48	19577,76
623,67	19800,58
623,86	20446,51
624,06	20689,81
624,25	21339,02
624,44	22031,64
624,64	22174,59
624,83	22600,97
625,02	22881,95
625,21	23902,66
625,41	24291,78
625,60	24932,79
625,79	25094,58
625,98	25804,41
626,18	26649,40
626,37	26941,44
626,56	27272,80
626,75	28192,34
626,95	28341,43
627,14	28848,10
627,33	29307,66
627,52	29689,81
627,72	30140,37
627,91	30676,52
628,10	31362,59
628,29	31780,38
628,49	32009,75
628,68	32523,79
628,87	32777,33
629,06	33989,32
629,25	34163,40
629,45	34469,77
629,64	35340,57
629,83	35845,19
630,02	36170,00
630,22	36960,51
630,41	37741,61
630,60	38018,90
630,79	38633,29
630,98	39080,57
631,18	39472,14
631,37	39984,54
631,56	41033,51
631,75	41655,68
631,94	41919,87
632,14	42180,78
632,33	42830,40
632,52	43321,09
632,71	44155,03
632,90	44507,28
633,10	44812,01
633,29	45124,12
633,48	45650,45
633,67	46164,08
633,86	46907,09
634,06	47447,34
634,25	47848,74
634,44	48553,24
634,63	48695,37
634,82	49177,05
635,02	49357,69
635,21	49781,21
635,40	50264,53
635,59	49755,81
635,78	50234,63
635,97	49959,79
636,17	49274,95
636,36	49651,77
636,55	49005,03
636,74	48996,42
636,93	47752,08
637,12	47731,60
637,32	47558,75
637,51	46072,74
637,70	45931,84
637,89	45043,43
638,08	44483,52
638,27	43634,43
638,47	42481,02
638,66	41885,06
638,85	40623,51
639,04	39989,87
639,23	38656,64
639,42	37604,39
639,62	36597,20
639,81	35406,92
640,00	34128,99
640,19	32878,91
640,38	31576,40
640,57	30388,17
640,76	29075,83
640,95	27715,16
641,15	26479,83
641,34	25357,95
641,53	24200,85
641,72	23049,89
641,91	22260,19
642,10	20944,17
642,29	20098,36
642,49	19147,69
642,68	18242,49
642,87	17554,37
643,06	16813,00
643,25	16018,80
643,44	15234,43
643,63	14649,53
643,82	13987,22
644,01	13427,30
644,21	12775,23
644,40	12404,96
644,59	11567,75
644,78	11099,99
644,97	10837,03
645,16	10159,97
645,35	9662,32
645,54	9240,44
645,73	8808,72
645,92	8545,76
646,12	8093,16
646,31	7713,47
646,50	7487,37
646,69	7402,18
646,88	6835,30
647,07	6784,10
647,26	6482,64
647,45	6204,12
647,64	6150,87
647,83	5827,29
648,02	5788,38
648,22	5503,30
648,41	5267,79
648,60	5205,53
648,79	5014,25
648,98	4995,00
649,17	4760,30
649,36	4503,48
649,55	4459,66
649,74	4451,06
649,93	4204,89
650,12	4143,45
650,31	4111,91
650,50	3956,68
650,69	3916,54
650,88	3868,61
651,08	3588,45
651,27	3696,17
651,46	3640,47
651,65	3320,17
651,84	3230,47
652,03	3214,90
652,22	3112,50
652,41	3046,97
652,60	3267,74
652,79	3149,78
652,98	2972,01
653,17	2879,03
653,36	2928,19
653,55	2845,04
653,74	2837,26
653,93	2738,54
654,12	2611,98
654,31	2550,13
654,50	2580,85
654,69	2652,94
654,88	2571,84
655,07	2407,18
655,26	2385,06
655,45	2365,40
655,64	2263,42
655,83	2337,96
656,02	2347,38
656,21	2237,61
656,40	2188,46
656,59	2292,91
656,78	2209,35
656,97	2151,60
657,17	2299,87
657,36	2084,42
657,55	2317,07
657,74	2151,60
657,93	2143,81
658,12	2158,97
658,31	2068,86
658,50	2027,08
658,69	1941,47
658,87	2110,23
659,06	1989,81
659,25	1961,54
659,44	1932,87
659,63	2120,06
659,82	2038,96
660,01	1986,94
660,20	1943,52
660,39	2013,15
660,58	1892,73
660,77	1887,82
660,96	1961,13
661,15	1925,50
661,34	1893,14
661,53	1871,43
661,72	1926,32
661,91	1826,38
662,10	1873,48
662,29	1771,08
662,48	1789,92
662,67	1780,09
662,86	1780,91
663,05	1838,67
663,24	1946,80
663,43	1818,60
663,62	1970,56
663,81	1814,50
664,00	1916,08
664,19	1726,44
664,38	1807,13
664,57	1751,01
664,76	1854,64
664,94	1732,58
665,13	1752,65
665,32	1693,67
665,51	1762,48
665,70	1710,05
665,89	1814,91
666,08	1814,50
666,27	1683,43
666,46	1777,64
666,65	1812,04
666,84	1652,71
667,03	1755,93
667,22	1667,87
667,41	1825,15
667,60	1708,83
667,78	1808,77
667,97	1782,55
668,16	1851,36
668,35	1751,83
668,54	1712,51
668,73	1706,78
668,92	1766,17
669,11	1744,05
669,30	1735,04
669,49	1671,55
669,68	1831,29
669,86	1690,80
670,05	1677,70
670,24	1663,77
670,43	1737,09
670,62	1815,32
670,81	1662,13
671,00	1696,54
671,19	1852,18
671,38	1705,96
671,57	1698,59
671,75	1634,28
671,94	1750,19
672,13	1761,66
672,32	1598,64
672,51	1662,54
672,70	1766,99
672,89	1708,01
673,08	1632,23
673,26	1674,01
673,45	1653,12
673,64	1676,06
673,83	1660,49
674,02	1638,38
674,21	1902,56
674,40	1672,37
674,59	1808,36
674,77	1750,19
674,96	1802,62
675,15	1783,37
675,34	1729,71
675,53	1841,12
675,72	1694,90
675,91	1764,53
676,09	1773,95
676,28	1956,63
676,47	1685,07
676,66	1621,58
676,85	1807,95
677,04	1722,75
677,22	1775,59
677,41	1686,71
677,60	1719,06
677,79	1682,61
677,98	1690,80
678,17	1610,52
678,36	1683,84
678,54	1587,18
678,73	1740,36
678,92	1607,66
679,11	1783,37
679,30	1655,99
679,48	1657,22
679,67	1698,59
679,86	1642,47
680,05	1780,09
680,24	1605,20
680,43	1692,44
680,61	1606,43
680,80	1598,64
680,99	1619,94
681,18	1603,97
681,37	1732,17
681,55	1842,35
681,74	1804,67
681,93	1672,37
682,12	1612,57
682,31	1619,12
682,49	1680,56
682,68	1785,42
682,87	1671,96
683,06	1611,75
683,25	1714,15
683,43	1737,91
683,62	1669,91
683,81	1776,41
684,00	1873,48
684,19	1671,55
684,37	1657,22
684,56	1645,75
684,75	1848,09
684,94	1631,00
685,12	1803,44
685,31	1674,42
685,50	1704,73
685,69	1662,54
685,88	1663,36
686,06	1705,14
686,25	1615,44
686,44	1709,64
686,63	1650,25
686,81	1766,17
687,00	1667,87
687,19	1672,37
687,38	1723,57
687,56	1614,62
687,75	1726,85
687,94	1659,26
688,13	1610,93
688,31	1640,83
688,50	1649,43
688,69	1678,52
688,88	1758,39
689,06	1769,44
689,25	1702,27
689,44	1591,68
689,63	1698,18
689,81	1574,89
690,00	1617,08
690,19	1715,79
690,38	1692,03
690,56	1610,11
690,75	1801,80
690,94	1712,10
691,13	1624,04
691,31	1721,93
691,50	1625,27
691,69	1719,88
691,87	1619,94
692,06	1727,26
692,25	1685,89
692,44	1604,79
692,62	1644,52
692,81	1905,02
693,00	1676,88
693,18	1659,26
693,37	1762,07
693,56	1581,85
693,75	1596,60
693,93	1748,56
694,12	1787,47
694,31	1678,92
694,49	1569,15
694,68	1630,59
694,87	1673,60
695,05	1633,05
695,24	1612,57
695,43	1604,79
695,62	1581,03
695,80	1635,51
695,99	1774,36
696,18	1625,27
696,36	1816,55
696,55	1622,81
696,74	1536,80
696,92	1789,52
697,11	1700,63
697,30	1772,72
697,48	1686,30
697,67	1599,87
697,86	1667,05
698,04	1565,47
698,23	1656,40
698,42	1728,90
698,60	1643,70
698,79	1669,91
698,98	1703,91
699,16	1591,68
699,35	1641,24
699,54	1755,11
699,72	1632,64
699,91	1899,29
700,10	1639,19
700,28	1641,24
700,47	1896,83
700,66	1666,23
700,84	1680,15
701,03	1559,73
701,21	2361,31
701,40	1603,56
701,59	1717,84
701,77	1663,77
701,96	1624,86
702,15	1696,95
702,33	1654,35
702,52	1593,73
702,71	1753,47
702,89	1624,45
703,08	1684,25
703,26	1740,36
703,45	1814,50
703,64	1727,26
703,82	1757,98
704,01	1654,76
704,20	1687,94
704,38	1719,88
704,57	1614,21
704,75	1566,29
704,94	1617,49
705,13	1698,59
705,31	1741,18
705,50	1639,19
705,68	1739,95
705,87	1753,88
706,06	1730,94
706,24	1621,58
706,43	1592,91
706,61	1718,66
706,80	1605,61
706,99	1703,09
707,17	1791,15
707,36	1718,66
707,54	1697,36
707,73	1648,21
707,92	1705,55
708,10	1594,96
708,29	1646,16
708,47	1674,01
708,66	1717,02
708,84	1657,22
709,03	1717,02
709,22	1694,08
709,40	1689,16
709,59	1710,87
709,77	1774,77
709,96	1759,61
710,14	1618,71
710,33	1725,62
710,52	1737,50
710,70	1780,91
710,89	1640,42
711,07	1665,41
711,26	1697,77
711,44	1795,66
711,63	1681,79
711,81	1696,54
712,00	1587,18
712,19	1707,19
712,37	1792,79
712,56	1722,75
712,74	1645,75
712,93	1687,12
713,11	1657,22
713,30	1672,37
713,48	1719,47
713,67	1646,57
713,85	1622,40
714,04	1703,50
714,22	1755,93
714,41	1730,12
714,59	1681,38
714,78	1726,44
714,97	1735,04
715,15	1646,16
715,34	1724,39
715,52	1598,64
715,71	1669,09
715,89	1628,95
716,08	1651,48
716,26	1589,63
716,45	1651,48
716,63	1651,89
716,82	1690,80
717,00	1571,61
717,19	1689,57
717,37	1651,48
717,56	1675,24
717,74	1640,42
717,93	1698,99
718,11	1696,95
718,30	1535,98
718,48	1722,34
718,67	1782,55
718,85	1660,08
719,04	1640,01
719,22	1575,30
719,41	1735,04
719,59	1806,72
719,78	1710,87
719,96	1614,62
720,15	1698,99
720,33	1707,60
720,52	1698,18
720,70	1558,50
720,88	1773,13
721,07	1594,55
721,25	1647,80
721,44	1599,46
721,62	1712,10
721,81	1549,08
721,99	1516,32
722,18	1652,30
722,36	1644,52
722,55	1646,98
722,73	1651,07
722,92	1754,29
723,10	1628,95
723,28	1669,91
723,47	1742,00
723,65	1741,59
723,84	1679,74
724,02	1548,67
724,21	1711,28
724,39	1613,39
724,58	1586,77
724,76	1768,63
724,94	1594,55
725,13	1736,27
725,31	1671,96
725,50	1711,28
725,68	1716,20
725,87	1661,72
726,05	1700,63
726,23	1621,17
726,42	1643,70
726,60	1641,24
726,79	1621,17
726,97	1687,12
727,16	1780,09
727,34	1682,20
727,52	1609,70
727,71	1744,87
727,89	1599,87
728,08	1606,02
728,26	1704,73
728,44	1687,94
728,63	1842,35
728,81	1644,52
729,00	1687,94
729,18	1650,66
729,36	1619,53
729,55	1711,28
729,73	1730,12
729,92	1712,51
730,10	1613,39
730,28	1630,59
730,47	1622,40
730,65	1646,57
730,84	1810,81
731,02	1572,43
731,20	1801,80
731,39	1687,12
731,57	1744,46
731,75	1714,15
731,94	1655,99
732,12	1774,77
732,31	1619,53
732,49	1608,47
732,67	1662,95
732,86	1585,95
733,04	1655,58
733,22	1587,99
733,41	1569,56
733,59	1625,68
733,78	1666,23
733,96	1742,00
734,14	1546,63
734,33	1544,58
734,51	1685,89
734,69	1705,55
734,88	1627,32
735,06	1622,40
735,24	1632,64
735,43	1758,39
735,61	1588,40
735,79	1715,38
735,98	1680,15
736,16	1798,12
736,34	1671,14
736,53	1680,56
736,71	1702,27
736,89	1702,27
737,08	1727,26
737,26	1632,64
737,44	1626,91
737,63	1671,55
737,81	1598,23
737,99	1729,71
738,18	1728,08
738,36	1815,32
738,54	1653,12
738,73	1741,18
738,91	1778,05
739,09	1640,42
739,28	1655,99
739,46	1635,51
739,64	1679,33
739,82	1763,30
740,01	1624,04
740,19	1853,00
740,37	1750,60
740,56	1683,84
740,74	1652,71
740,92	1684,66
741,11	1526,97
741,29	1633,87
741,47	1812,86
741,65	1636,33
741,84	1645,34
742,02	1796,48
742,20	1641,65
742,39	1679,74
742,57	1672,78
742,75	1637,97
742,93	1701,86
743,12	1684,66
743,30	1658,85
743,48	1659,26
743,67	1709,64
743,85	1578,16
744,03	1803,85
744,21	1669,50
744,40	1640,01
744,58	1675,65
744,76	1672,78
744,94	1685,89
745,13	1639,19
745,31	1628,14
745,49	1650,66
745,67	1586,36
745,86	1765,35
746,04	1646,57
746,22	1693,67
746,40	1600,69
746,59	1580,21
746,77	1709,64
746,95	1773,13
747,13	1672,78
747,32	1700,22
747,50	1671,14
747,68	1627,73
747,86	1642,88
748,05	1764,53
748,23	1682,61
748,41	1695,31
748,59	1602,33
748,77	1621,17
748,96	1643,70
749,14	1537,21
749,32	1899,29
749,50	1767,40
749,69	1701,04
749,87	1726,44
750,05	1694,49
750,23	1565,47
750,41	1637,56
750,60	1717,84
750,78	1601,10
750,96	1694,49
751,14	1703,50
751,32	1705,14
751,51	1576,94
751,69	1604,38
751,87	1549,08
752,05	1708,42
752,23	1684,25
752,42	1647,39
752,60	1661,31
752,78	1675,65
752,96	1601,51
753,14	1661,72
753,33	1590,86
753,51	1603,15
753,69	1687,12
753,87	1690,39
754,05	1719,06
754,23	1707,60
754,42	1693,26
754,60	1675,65
754,78	1789,11
754,96	1571,61
755,14	1671,55
755,32	1736,68
755,51	1570,79
755,69	1681,79
755,87	1579,39
756,05	1540,48
756,23	1630,59
756,41	1683,43
756,60	1661,72
756,78	1696,54
756,96	1572,84
757,14	1715,79
757,32	1600,28
757,50	1701,45
757,68	1657,22
757,87	1617,08
758,05	1651,89
758,23	1632,64
758,41	1819,01
758,59	1775,18
758,77	1805,08
758,95	1750,19
759,14	1703,91
759,32	1803,85
759,50	1622,40
759,68	1612,16
759,86	1623,63
760,04	1626,91
760,22	1636,33
760,40	1958,68
760,59	1652,30
760,77	1755,52
760,95	1599,46
761,13	1631,41
761,31	1767,81
761,49	1708,42
761,67	1778,05
761,85	1637,56
762,03	1628,95
762,22	1776,82
762,40	1755,11
762,58	1603,15
762,76	1689,57
762,94	1682,61
763,12	1698,99
763,30	1742,00
763,48	1704,73
763,66	1609,29
763,84	1584,31
764,02	1672,78
764,21	1642,06
764,39	1900,92
764,57	1654,76
764,75	1629,36
764,93	1740,36
765,11	1658,85
765,29	1700,63
765,47	1660,08
765,65	1690,39
765,83	1670,73
766,01	1658,04
766,19	1712,10
766,37	1862,83
766,56	1712,10
766,74	1627,73
766,92	1671,96
767,10	1637,15
767,28	1690,80
767,46	1683,43
767,64	1618,71
767,82	1726,03
768,00	1613,80
768,18	1612,98
768,36	1753,88
768,54	1765,35
768,72	1760,84
768,90	1582,67
769,08	1541,30
769,26	1669,91
769,44	1620,76
769,62	1653,94
769,80	1756,34
769,98	1711,28
770,16	1592,50
770,34	1662,54
770,52	1584,31
770,71	1678,52
770,89	1624,45
771,07	1835,39
771,25	1649,02
771,43	1777,23
771,61	1746,51
771,79	1659,26
771,97	1660,49
772,15	1667,87
772,33	1667,87
772,51	1785,83
772,69	1598,23
772,87	1699,40
773,05	1659,67
773,23	1773,54
773,41	1676,06
773,59	1770,26
773,77	1671,96
773,95	1692,44
774,13	1700,22
774,31	1781,32
774,49	1698,18
774,67	1647,39
774,85	1666,64
775,03	1644,93
775,21	1680,56
775,39	1617,08
775,57	1610,93
775,75	1748,56
775,93	1672,78
776,10	1636,33
776,28	1735,86
776,46	1621,58
776,64	1639,60
776,82	1614,21
777,00	3540,53
777,18	1587,18
777,36	1757,16
777,54	1625,27
777,72	1574,48
777,90	1712,51
778,08	1583,90
778,26	1567,52
778,44	1587,18
778,62	1671,55
778,80	1843,99
778,98	1744,46
779,16	1601,10
779,34	1841,94
779,52	1617,49
779,70	1783,37
779,88	1590,45
780,05	1607,66
780,23	1582,67
780,41	1672,78
780,59	1629,36
780,77	1723,98
780,95	1664,18
781,13	1754,70
781,31	1604,38
781,49	1787,06
781,67	1695,31
781,85	1642,88
782,03	1693,26
782,21	1689,16
782,39	1674,42
782,56	1744,87
782,74	1703,50
782,92	1685,07
783,10	1846,86
783,28	1615,03
783,46	1589,63
783,64	1736,27
783,82	1657,22
784,00	1763,30
784,18	1643,70
784,35	1609,29
784,53	1631,82
784,71	1641,65
784,89	1648,21
785,07	1663,36
785,25	1734,22
785,43	1734,63
785,61	1586,77
785,79	1659,67
785,96	1743,64
786,14	1618,30
786,32	1727,26
786,50	1694,90
786,68	1494,20
786,86	1661,31
787,04	1711,69
787,22	1631,41
787,39	1642,47
787,57	1598,64
787,75	1642,88
787,93	1730,94
788,11	1567,92
788,29	1698,18
788,47	1696,13
788,65	1636,74
788,82	1697,36
789,00	1596,60
789,18	1744,05
789,36	1665,41
789,54	1610,93
789,72	1601,51
789,89	1630,18
790,07	1765,35
790,25	1759,21
790,43	1684,66
790,61	1729,30
790,79	1640,42
790,96	1646,98
791,14	1810,81
791,32	1568,74
791,50	1742,41
791,68	1774,36
791,86	1662,54
792,03	1671,14
792,21	1670,73
792,39	1651,48
792,57	1600,28
792,75	1556,05
792,93	1675,24
793,10	1637,97
793,28	1660,08
793,46	1560,55
793,64	1721,11
793,82	1822,28
793,99	1739,54
794,17	1560,14
794,35	1665,00
794,53	1711,69
794,71	1533,11
794,88	1593,32
795,06	1680,97
795,24	1597,42
795,42	1655,99
795,60	1757,57
795,77	1615,44
795,95	1640,42
796,13	1664,59
796,31	1636,33
796,49	1847,27
796,66	1644,11
796,84	1616,26
797,02	1753,47
797,20	1712,10
797,37	1684,25
797,55	1578,57
797,73	1630,18
797,91	1563,42
798,08	1753,06
798,26	1714,97
798,44	1600,28
798,62	1566,29
798,80	1634,69
798,97	1608,88
799,15	1642,47
799,33	1803,85
799,51	1738,73
799,68	1692,03
799,86	1696,54
800,04	1701,86
800,22	1670,73
800,39	1583,90
800,57	1812,86
800,75	1683,84
800,93	1711,28
801,10	1712,51
801,28	1773,54
801,46	1634,69
801,63	1693,26
801,81	1718,25
801,99	1634,28
802,17	1626,09
802,34	1808,36
802,52	1601,10
802,70	1759,61
802,88	1728,49
803,05	1798,94
803,23	1647,39
803,41	1617,49
803,58	1698,99
803,76	1735,04
803,94	1753,88
804,12	1691,62
804,29	1708,42
804,47	1803,03
804,65	1720,70
804,82	1660,90
805,00	1661,72
805,18	1700,22
805,35	1592,09
805,53	1676,88
805,71	1689,16
805,89	1701,45
806,06	1771,90
806,24	1578,57
806,42	1657,22
806,59	1626,91
806,77	1742,00
806,95	1673,60
807,12	1711,28
807,30	1730,94
807,48	1598,64
807,65	1601,51
807,83	1692,03
808,01	1702,68
808,18	1688,76
808,36	1706,78
808,54	1583,90
808,71	1668,68
808,89	1695,72
809,07	1730,12
809,24	1740,36
809,42	1822,28
809,60	1625,27
809,77	1687,12
809,95	1764,12
810,13	1617,49
810,30	1683,43
810,48	1795,66
810,66	1651,89
810,83	1721,52
811,01	1694,08
811,18	1689,57
811,36	1536,39
811,54	1653,12
811,71	1714,15
811,89	1688,76
812,07	1612,16
812,24	1850,54
812,42	1631,41
812,59	1690,80
812,77	1686,71
812,95	1755,93
813,12	1709,64
813,30	1638,78
813,48	1658,45
813,65	1735,86
813,83	1718,66
814,00	1741,18
814,18	1740,77
814,36	1660,90
814,53	1695,31
814,71	1705,14
814,88	1741,18
815,06	1581,85
815,24	1758,80
815,41	1643,29
815,59	1662,95
815,76	1654,35
815,94	1792,38
816,12	1670,32
816,29	1792,79
816,47	1726,85
816,64	1833,34
816,82	1629,77
817,00	1740,77
817,17	1672,37
817,35	1881,67
817,52	1665,00
817,70	1690,80
817,87	1773,54
818,05	1632,23
818,23	1659,26
818,40	1811,22
818,58	1728,90
818,75	1616,26
818,93	1663,36
819,10	1694,49
819,28	1605,20
819,46	1724,39
819,63	1655,58
819,81	1786,65
819,98	1549,49
820,16	1774,36
820,33	1547,04
820,51	1833,34
820,68	1717,84
820,86	1746,10
821,03	1812,04
821,21	1739,95
821,39	1871,43
821,56	1704,73
821,74	1603,15
821,91	1642,88
822,09	1669,91
822,26	1669,91
822,44	1619,53
822,61	1612,57
822,79	1767,40
822,96	1667,87
823,14	1633,46
823,31	1651,07
823,49	1793,61
823,66	1723,98
823,84	1662,54
824,01	1648,21
824,19	1572,84
824,36	1736,27
824,54	1706,37
824,71	1796,07
824,89	1743,23
825,06	1842,35
825,24	1659,26
825,41	1693,26
825,59	1671,55
825,76	1767,81
825,94	1638,38
826,11	1819,42
826,29	1645,75
826,46	1699,81
826,64	1747,33
826,81	1769,85
826,99	1701,04
827,16	1612,98
827,34	1560,96
827,51	1681,79
827,69	1850,54
827,86	1710,87
828,04	1673,60
828,21	1690,80
828,39	1777,23
828,56	1681,38
828,74	1744,46
828,91	1663,36
829,09	1949,26
829,26	1670,32
829,43	1738,73
829,61	1686,71
829,78	1662,95
829,96	1705,96
830,13	1632,64
830,31	1722,34
830,48	1659,26
830,66	1660,08
830,83	1615,85
831,01	1665,00
831,18	1691,21
831,35	1678,11
831,53	1746,92
831,70	1753,47
831,88	1877,17
832,05	1739,95
832,23	1668,68
832,40	1761,25
832,57	1783,37
832,75	1627,73
832,92	1761,66
833,10	1822,69
833,27	1746,51
833,45	1639,60
833,62	1651,07
833,79	1712,51
833,97	1610,11
834,14	1698,99
834,32	1739,14
834,49	1627,73
834,66	1636,33
834,84	1593,32
835,01	1762,48
835,19	1610,52
835,36	1615,44
835,53	1840,30
835,71	1677,29
835,88	1737,09
836,06	1714,56
836,23	1857,92
836,40	1598,23
836,58	1633,46
836,75	1684,25
836,93	1678,11
837,10	1692,85
837,27	1689,16
837,45	1660,90
837,62	1592,50
837,79	1621,99
837,97	1763,71
838,14	1629,77
838,32	1673,60
838,49	1691,62
838,66	1716,20
838,84	1788,70
839,01	1799,75
839,18	1691,62
839,36	1658,04
839,53	1623,22
839,70	1726,44
839,88	1666,23
840,05	1762,07
840,23	1679,33
840,40	1617,49
840,57	1695,72
840,75	1705,55
840,92	1844,40
841,09	1694,08
841,27	1753,47
841,44	1693,26
841,61	1790,33
841,79	1738,32
841,96	1688,35
842,13	1603,15
842,31	1697,36
842,48	1684,66
842,65	1580,62
842,83	1705,96
843,00	1738,73
843,17	1632,64
843,35	1744,05
843,52	1625,27
843,69	1730,12
843,86	1635,10
844,04	1656,40
844,21	1658,45
844,38	1740,77
844,56	1700,63
844,73	1721,52
844,90	1720,70
845,08	1711,69
845,25	1682,61
845,42	1747,33
845,60	1742,00
845,77	1662,54
845,94	1659,26
846,11	1695,72
846,29	1828,43
846,46	1677,29
846,63	1677,70
846,81	1762,89
846,98	1729,71
847,15	1709,23
847,32	1732,99
847,50	1593,32
847,67	1660,49
847,84	1714,56
848,01	1752,24
848,19	1674,83
848,36	1703,91
848,53	1593,73
848,71	1791,56
848,88	1685,48
849,05	1600,69
849,22	1617,90
849,40	1638,38
849,57	1769,85
849,74	1744,05
849,91	1692,44
850,09	1649,02
850,26	1651,07
850,43	1665,41
850,60	1635,10
850,78	1702,27
850,95	1663,36
851,12	1662,13
851,29	1748,97
851,47	1785,83
851,64	1675,65
851,81	1685,07
851,98	1641,65
852,15	1824,33
852,33	1597,01
852,50	1670,32
852,67	1759,21
852,84	1634,69
853,02	1739,14
853,19	1840,30
853,36	1633,87
853,53	1570,79
853,70	1847,27
853,88	1769,85
854,05	1742,41
854,22	1646,98
854,39	1743,23
854,56	1721,52
854,74	1592,09
854,91	1734,63
855,08	1567,52
855,25	1702,68
855,42	1636,74
855,60	1723,16
855,77	1777,23
855,94	1825,56
856,11	1631,82
856,28	1672,78
856,46	1792,38
856,63	1669,50
856,80	1647,39
856,97	1776,82
857,14	1722,75
857,31	1648,21
857,49	1678,52
857,66	1756,34
857,83	1627,73
858,00	1695,31
858,17	1644,93
858,34	1675,24
858,52	1612,57
858,69	1704,73
858,86	1741,18
859,03	1646,16
859,20	1774,77
859,37	1701,04
859,55	1634,69
859,72	1742,41
859,89	1701,45
860,06	1760,43
860,23	1791,97
860,40	1633,87
860,57	1783,37
860,75	1593,73
860,92	1763,30
861,09	1775,59
861,26	1763,71
861,43	1689,98
861,60	1665,82
861,77	1635,10
861,95	1606,43
862,12	1720,29
862,29	1662,54
862,46	1733,40
862,63	1766,99
862,80	1769,85
862,97	1802,21
863,14	1639,19
863,31	1798,53
863,49	1753,88
863,66	1736,27
863,83	1746,10
864,00	1798,53
864,17	1631,82
864,34	1682,61
864,51	1585,54
864,68	1714,56
864,85	1634,69
865,02	1645,34
865,20	1725,62
865,37	1660,08
865,54	1664,18
865,71	1728,49
865,88	1644,11
866,05	1627,32
866,22	1653,53
866,39	1643,29
866,56	1656,40
866,73	1637,15
866,90	1808,36
867,07	1771,49
867,25	1629,77
867,42	1824,74
867,59	1653,53
867,76	1793,20
867,93	1674,83
868,10	1737,50
868,27	1633,46
868,44	1739,95
868,61	1669,50
868,78	1738,73
868,95	1617,90
869,12	1780,09
869,29	1729,71
869,46	1739,14
869,63	1729,71
869,80	1590,45
869,97	1753,47
870,14	1709,23
870,32	1708,42
870,49	1695,31
870,66	1764,12
870,83	1693,67
871,00	1648,21
871,17	1632,23
871,34	1721,52
871,51	1648,61
871,68	1628,54
871,85	1733,81
872,02	1821,46
872,19	1680,97
872,36	1619,12
872,53	1710,46
872,70	1721,11
872,87	1657,63
873,04	1594,14
873,21	1588,40
873,38	1646,16
873,55	1804,67
873,72	1716,61
873,89	1694,49
874,06	1566,29
874,23	1559,32
874,40	1636,74
874,57	1669,50
874,74	1821,46
874,91	1611,75
875,08	1665,00
875,25	1708,83
875,42	1728,08
875,59	1671,96
875,76	1733,81
875,93	1732,58
876,10	1807,95
876,27	1611,75
876,44	1914,03
876,61	1760,84
876,78	1682,61
876,95	1721,52
877,12	1677,29
877,29	1674,01
877,46	1721,52
877,62	1694,08
877,79	1610,93
877,96	1753,47
878,13	1635,10
878,30	1663,77
878,47	1789,92
878,64	1717,02
878,81	1708,83
878,98	1646,98
879,15	1809,18
879,32	1788,70
879,49	1774,36
879,66	1754,29
879,83	1683,43
880,00	1839,08
880,17	1621,17
880,34	1748,56
880,51	1639,60
880,67	1826,38
880,84	1529,01
881,01	1669,91
881,18	1823,10
881,35	1641,24
881,52	1826,38
881,69	1667,87
881,86	1838,67
882,03	1685,48
882,20	1748,56
882,37	1711,28
882,54	1773,95
882,70	1678,11
882,87	1696,54
883,04	1800,16
883,21	1757,98
883,38	1649,84
883,55	1692,44
883,72	1633,05
883,89	1631,00
884,06	1621,58
884,23	1647,80
884,39	1566,29
884,56	1780,91
884,73	1732,99
884,90	1693,67
885,07	1800,57
885,24	1690,80
885,41	1812,04
885,58	1655,99
885,74	1599,05
885,91	1770,67
886,08	1726,03
886,25	1650,66
886,42	1685,48
886,59	1715,38
886,76	1619,53
886,93	1571,20
887,09	1810,81
887,26	1941,06
887,43	1693,26
887,60	1677,29
887,77	1733,81
887,94	1740,77
888,10	1919,77
888,27	1800,16
888,44	1746,92
888,61	1547,85
888,78	1646,16
888,95	1739,54
889,12	1652,71
889,28	1722,75
889,45	1662,95
889,62	1712,92
889,79	1660,90
889,96	1695,72
890,13	1681,38
890,29	1728,49
890,46	1868,98
890,63	1754,29
890,80	1693,67
890,97	1682,61
891,13	1639,60
891,30	1746,92
891,47	1932,46
891,64	1668,28
891,81	1624,04
891,98	1689,98
892,14	1719,47
892,31	1630,59
892,48	1679,74
892,65	1613,80
892,82	1655,17
892,98	1565,06
893,15	1716,61
893,32	1753,47
>>>>>End Processed Spectral Data<<<<<
