SpectraSuite Datei
++++++++++++++++++++++++++++++++++++
Datum: Mon Mar 09 10:13:13 CET 2020
Benutzer: Lichtquellen1
Dark-Spektrum vorhanden: Ja
Referenz-Spektrum vorhanden: Nein
Zahl der probierten Teilspektren: 1
Spektrometer: USB4F05832
Integrationszeit (usec): 50000 (USB4F05832)
Spektren Durchschnitt berechnet: 20 (USB4F05832)
Boxcar Glättung: 0 (USB4F05832)
Dunkelstromkorrektur: Nein (USB4F05832)
Puls/Lampe aktiviert: Nein (USB4F05832)
Correct for Detector Non-linearity: Nein (USB4F05832)
Streulichtkorrektur: Nein (USB4F05832)
Anzahl Pixel in verarbeitetem Spektrum: 3648
>>>>>Begin Processed Spectral Data<<<<<
177,54	1220,49
177,75	1220,49
177,97	1220,49
178,19	1213,01
178,41	1230,01
178,63	1276,91
178,85	1245,88
179,07	1272,81
179,29	1272,10
179,51	1243,53
179,73	1290,73
179,95	1267,59
180,17	1263,19
180,39	1310,29
180,61	1284,79
180,83	1296,88
181,05	1273,32
181,27	1270,97
181,49	1277,73
181,71	1267,59
181,92	1327,49
182,14	1276,70
182,36	1274,35
182,58	1282,03
182,80	1279,88
183,02	1322,07
183,24	1310,80
183,46	1279,98
183,68	1296,16
183,90	1288,48
184,12	1272,30
184,34	1305,58
184,56	1290,12
184,78	1258,37
185,00	1297,39
185,21	1300,46
185,43	1272,10
185,65	1300,05
185,87	1281,00
186,09	1307,22
186,31	1295,03
186,53	1304,45
186,75	1304,04
186,97	1312,95
187,19	1320,84
187,41	1279,26
187,63	1319,81
187,84	1268,00
188,06	1300,46
188,28	1271,38
188,50	1309,37
188,72	1316,54
188,94	1313,16
189,16	1273,12
189,38	1300,97
189,60	1288,17
189,82	1292,06
190,03	1286,23
190,25	1304,15
190,47	1298,72
190,69	1303,33
190,91	1272,10
191,13	1310,29
191,35	1325,04
191,57	1282,75
191,79	1293,70
192,01	1303,53
192,22	1301,28
192,44	1283,36
192,66	1295,24
192,88	1303,94
193,10	1293,39
193,32	1283,15
193,54	1315,31
193,76	1309,57
193,98	1294,01
194,19	1300,77
194,41	1283,36
194,63	1291,76
194,85	1290,73
195,07	1319,40
195,29	1259,09
195,51	1285,51
195,73	1278,85
195,94	1288,17
196,16	1272,40
196,38	1330,36
196,60	1268,92
196,82	1287,56
197,04	1287,46
197,26	1282,03
197,48	1275,37
197,69	1290,43
197,91	1270,15
198,13	1278,03
198,35	1282,03
198,57	1286,94
198,79	1308,45
199,01	1301,48
199,22	1294,11
199,44	1321,66
199,66	1278,44
199,88	1295,24
200,10	1300,97
200,32	1298,62
200,54	1307,12
200,75	1308,96
200,97	1283,67
201,19	1311,62
201,41	1312,24
201,63	1287,25
201,85	1285,41
202,06	1314,28
202,28	1277,22
202,50	1297,08
202,72	1270,25
202,94	1285,10
203,16	1284,28
203,38	1300,36
203,59	1288,27
203,81	1327,80
204,03	1279,57
204,25	1302,61
204,47	1303,02
204,69	1289,61
204,90	1291,24
205,12	1311,93
205,34	1297,49
205,56	1298,82
205,78	1287,25
206,00	1318,18
206,21	1312,44
206,43	1291,35
206,65	1291,86
206,87	1286,23
207,09	1295,95
207,30	1276,29
207,52	1310,50
207,74	1286,74
207,96	1271,89
208,18	1284,59
208,40	1279,57
208,61	1292,17
208,83	1279,67
209,05	1268,61
209,27	1264,62
209,49	1303,74
209,70	1309,88
209,92	1289,61
210,14	1282,34
210,36	1294,83
210,58	1295,65
210,79	1304,86
211,01	1264,72
211,23	1321,14
211,45	1303,63
211,67	1303,33
211,88	1275,58
212,10	1305,99
212,32	1270,87
212,54	1278,75
212,76	1285,51
212,97	1284,38
213,19	1261,96
213,41	1316,74
213,63	1277,52
213,85	1285,61
214,06	1270,25
214,28	1328,52
214,50	1281,62
214,72	1313,06
214,94	1290,02
215,15	1285,61
215,37	1285,82
215,59	1293,09
215,81	1299,13
216,02	1300,97
216,24	1296,77
216,46	1282,03
216,68	1286,43
216,90	1282,03
217,11	1320,74
217,33	1287,15
217,55	1311,11
217,77	1293,09
217,98	1299,13
218,20	1302,41
218,42	1302,61
218,64	1305,48
218,85	1319,20
219,07	1310,90
219,29	1311,83
219,51	1319,30
219,73	1278,14
219,94	1285,20
220,16	1317,77
220,38	1299,54
220,60	1293,60
220,81	1280,29
221,03	1278,03
221,25	1321,14
221,47	1268,92
221,68	1297,90
221,90	1315,31
222,12	1296,77
222,34	1300,15
222,55	1310,50
222,77	1300,77
222,99	1300,56
223,21	1284,18
223,42	1319,61
223,64	1305,68
223,86	1298,51
224,08	1275,58
224,29	1303,22
224,51	1301,69
224,73	1296,77
224,94	1298,21
225,16	1299,03
225,38	1295,44
225,60	1309,06
225,81	1287,56
226,03	1284,59
226,25	1298,41
226,47	1297,49
226,68	1292,99
226,90	1298,21
227,12	1296,36
227,33	1309,68
227,55	1286,23
227,77	1290,94
227,99	1311,93
228,20	1294,01
228,42	1305,27
228,64	1305,38
228,86	1288,58
229,07	1294,42
229,29	1277,83
229,51	1258,99
229,72	1314,18
229,94	1313,67
230,16	1303,12
230,38	1290,32
230,59	1281,31
230,81	1321,35
231,03	1286,43
231,24	1294,21
231,46	1272,10
231,68	1303,33
231,89	1290,73
232,11	1293,29
232,33	1324,42
232,55	1303,84
232,76	1303,22
232,98	1308,14
233,20	1288,48
233,41	1288,07
233,63	1274,66
233,85	1302,41
234,06	1283,05
234,28	1308,24
234,50	1288,27
234,71	1309,68
234,93	1314,69
235,15	1308,55
235,37	1273,02
235,58	1313,77
235,80	1275,99
236,02	1271,99
236,23	1293,91
236,45	1283,46
236,67	1308,65
236,88	1297,90
237,10	1305,89
237,32	1322,78
237,53	1307,53
237,75	1291,04
237,97	1267,18
238,18	1285,41
238,40	1301,59
238,62	1303,02
238,83	1284,28
239,05	1294,32
239,27	1291,45
239,48	1273,94
239,70	1301,28
239,92	1307,12
240,13	1317,36
240,35	1284,69
240,57	1291,76
240,78	1298,51
241,00	1264,83
241,22	1293,70
241,43	1321,35
241,65	1295,03
241,87	1309,47
242,08	1355,76
242,30	1270,66
242,52	1297,29
242,73	1308,55
242,95	1281,93
243,16	1305,27
243,38	1329,34
243,60	1303,33
243,81	1311,62
244,03	1306,81
244,25	1279,67
244,46	1290,73
244,68	1274,35
244,90	1297,59
245,11	1290,02
245,33	1290,32
245,55	1299,23
245,76	1293,09
245,98	1281,93
246,19	1316,13
246,41	1333,53
246,63	1311,21
246,84	1311,72
247,06	1278,14
247,28	1300,15
247,49	1292,99
247,71	1286,64
247,92	1295,14
248,14	1327,29
248,36	1306,40
248,57	1328,31
248,79	1323,40
249,01	1291,45
249,22	1290,02
249,44	1294,83
249,65	1298,51
249,87	1306,30
250,09	1308,34
250,30	1301,89
250,52	1291,14
250,73	1315,41
250,95	1290,63
251,17	1308,75
251,38	1280,90
251,60	1301,28
251,81	1319,71
252,03	1339,58
252,25	1277,32
252,46	1292,88
252,68	1311,42
252,89	1304,56
253,11	1285,31
253,33	1311,52
253,54	1284,79
253,76	1289,30
253,97	1307,12
254,19	1306,81
254,41	1290,02
254,62	1313,77
254,84	1301,38
255,05	1289,81
255,27	1319,30
255,49	1312,65
255,70	1307,42
255,92	1270,36
256,13	1290,43
256,35	1306,50
256,56	1313,16
256,78	1324,42
257,00	1315,62
257,21	1290,73
257,43	1288,07
257,64	1310,70
257,86	1321,86
258,08	1308,86
258,29	1312,24
258,51	1296,16
258,72	1305,07
258,94	1316,84
259,15	1290,83
259,37	1302,30
259,59	1275,99
259,80	1316,95
260,02	1294,73
260,23	1303,94
260,45	1279,26
260,66	1303,84
260,88	1288,68
261,09	1295,03
261,31	1282,64
261,53	1302,00
261,74	1302,82
261,96	1275,07
262,17	1297,29
262,39	1300,97
262,60	1291,76
262,82	1308,86
263,03	1293,19
263,25	1304,45
263,46	1293,19
263,68	1294,32
263,90	1293,80
264,11	1299,44
264,33	1320,84
264,54	1317,66
264,76	1312,54
264,97	1306,09
265,19	1288,58
265,40	1324,01
265,62	1280,70
265,83	1312,34
266,05	1320,53
266,26	1302,51
266,48	1332,82
266,70	1326,67
266,91	1278,85
267,13	1313,36
267,34	1311,11
267,56	1305,38
267,77	1297,80
267,99	1300,46
268,20	1314,49
268,42	1307,12
268,63	1283,87
268,85	1347,97
269,06	1304,45
269,28	1309,88
269,49	1317,15
269,71	1311,21
269,92	1300,66
270,14	1278,34
270,35	1297,80
270,57	1311,83
270,78	1296,77
271,00	1304,25
271,21	1353,40
271,43	1299,33
271,64	1282,54
271,86	1312,95
272,07	1274,96
272,29	1337,43
272,50	1293,50
272,72	1311,31
272,93	1310,09
273,15	1327,90
273,36	1296,98
273,58	1313,16
273,79	1307,83
274,01	1313,67
274,22	1290,83
274,44	1308,65
274,65	1295,95
274,87	1322,17
275,08	1301,28
275,30	1316,33
275,51	1327,49
275,73	1320,53
275,94	1284,59
276,16	1305,58
276,37	1292,88
276,59	1313,06
276,80	1289,71
277,02	1311,11
277,23	1281,62
277,45	1316,64
277,66	1282,44
277,88	1310,70
278,09	1326,67
278,30	1308,65
278,52	1273,53
278,73	1356,37
278,95	1314,08
279,16	1336,40
279,38	1308,65
279,59	1289,61
279,81	1288,68
280,02	1297,59
280,24	1282,34
280,45	1310,60
280,67	1313,87
280,88	1320,53
281,09	1288,58
281,31	1301,28
281,52	1292,68
281,74	1328,82
281,95	1303,63
282,17	1289,91
282,38	1309,88
282,60	1309,37
282,81	1305,27
283,02	1301,07
283,24	1301,28
283,45	1317,97
283,67	1292,27
283,88	1324,32
284,10	1287,35
284,31	1325,34
284,53	1307,53
284,74	1307,63
284,95	1283,77
285,17	1332,82
285,38	1277,01
285,60	1293,39
285,81	1296,67
286,03	1308,45
286,24	1321,04
286,45	1308,45
286,67	1299,64
286,88	1305,68
287,10	1317,66
287,31	1295,95
287,53	1307,42
287,74	1320,84
287,95	1281,41
288,17	1324,42
288,38	1308,86
288,60	1293,29
288,81	1310,19
289,02	1288,27
289,24	1327,60
289,45	1295,85
289,67	1303,94
289,88	1316,54
290,10	1292,78
290,31	1310,09
290,52	1280,19
290,74	1312,54
290,95	1329,03
291,17	1314,49
291,38	1302,92
291,59	1298,51
291,81	1298,31
292,02	1300,87
292,24	1316,13
292,45	1306,91
292,66	1310,90
292,88	1337,53
293,09	1309,37
293,31	1313,46
293,52	1297,29
293,73	1283,26
293,95	1316,95
294,16	1312,24
294,37	1316,95
294,59	1320,84
294,80	1325,34
295,02	1298,10
295,23	1266,26
295,44	1309,37
295,66	1288,68
295,87	1319,61
296,09	1303,43
296,30	1299,44
296,51	1276,70
296,73	1309,68
296,94	1300,36
297,15	1293,29
297,37	1278,14
297,58	1295,85
297,79	1300,87
298,01	1325,45
298,22	1323,40
298,44	1286,94
298,65	1309,68
298,86	1328,11
299,08	1285,41
299,29	1305,89
299,50	1304,66
299,72	1300,66
299,93	1306,40
300,14	1320,22
300,36	1271,79
300,57	1296,98
300,79	1308,75
301,00	1304,15
301,21	1274,04
301,43	1302,61
301,64	1297,80
301,85	1306,60
302,07	1314,39
302,28	1306,09
302,49	1332,41
302,71	1305,38
302,92	1310,39
303,13	1325,96
303,35	1306,60
303,56	1324,11
303,77	1271,38
303,99	1300,77
304,20	1309,16
304,41	1287,25
304,63	1281,31
304,84	1319,10
305,05	1304,25
305,27	1325,55
305,48	1313,87
305,69	1308,55
305,91	1314,28
306,12	1298,10
306,33	1312,85
306,55	1306,40
306,76	1298,92
306,97	1294,62
307,19	1314,90
307,40	1313,67
307,61	1319,92
307,82	1302,92
308,04	1310,19
308,25	1316,33
308,46	1304,45
308,68	1305,27
308,89	1335,79
309,10	1315,31
309,32	1297,80
309,53	1315,10
309,74	1318,28
309,96	1307,73
310,17	1312,03
310,38	1295,03
310,59	1308,55
310,81	1308,55
311,02	1302,41
311,23	1318,79
311,45	1304,66
311,66	1296,98
311,87	1293,50
312,09	1328,31
312,30	1309,68
312,51	1318,48
312,72	1305,38
312,94	1325,24
313,15	1302,61
313,36	1302,71
313,58	1288,58
313,79	1335,28
314,00	1294,01
314,21	1294,62
314,43	1299,85
314,64	1313,67
314,85	1291,55
315,06	1306,91
315,28	1334,97
315,49	1317,05
315,70	1313,57
315,92	1328,11
316,13	1340,60
316,34	1315,41
316,55	1309,47
316,77	1304,76
316,98	1306,09
317,19	1312,54
317,40	1286,64
317,62	1295,34
317,83	1333,02
318,04	1283,36
318,25	1290,32
318,47	1308,45
318,68	1299,54
318,89	1331,59
319,11	1308,14
319,32	1314,08
319,53	1325,85
319,74	1325,34
319,96	1320,33
320,17	1314,39
320,38	1288,27
320,59	1322,37
320,81	1299,13
321,02	1328,62
321,23	1295,34
321,44	1339,58
321,65	1312,03
321,87	1305,89
322,08	1342,85
322,29	1310,09
322,50	1292,68
322,72	1309,57
322,93	1320,02
323,14	1299,74
323,35	1291,45
323,57	1325,65
323,78	1300,36
323,99	1318,48
324,20	1310,80
324,41	1306,30
324,63	1313,57
324,84	1304,56
325,05	1310,70
325,26	1330,46
325,48	1327,49
325,69	1313,67
325,90	1308,96
326,11	1308,24
326,32	1306,50
326,54	1330,16
326,75	1315,62
326,96	1288,38
327,17	1313,98
327,39	1319,71
327,60	1309,88
327,81	1307,12
328,02	1299,95
328,23	1300,05
328,45	1300,36
328,66	1304,86
328,87	1316,54
329,08	1343,98
329,29	1306,19
329,51	1300,26
329,72	1296,06
329,93	1314,69
330,14	1299,13
330,35	1308,96
330,56	1295,55
330,78	1318,48
330,99	1295,65
331,20	1311,42
331,41	1323,60
331,62	1287,05
331,84	1305,78
332,05	1310,19
332,26	1307,63
332,47	1313,87
332,68	1292,06
332,90	1319,30
333,11	1274,35
333,32	1341,32
333,53	1315,31
333,74	1280,08
333,95	1326,26
334,17	1310,29
334,38	1312,03
334,59	1301,79
334,80	1304,35
335,01	1316,43
335,22	1294,21
335,44	1319,51
335,65	1319,81
335,86	1329,95
336,07	1303,74
336,28	1290,43
336,49	1298,10
336,71	1300,05
336,92	1326,16
337,13	1306,81
337,34	1285,92
337,55	1335,28
337,76	1303,12
337,97	1317,87
338,19	1312,44
338,40	1300,36
338,61	1306,09
338,82	1325,14
339,03	1317,46
339,24	1304,97
339,45	1287,56
339,67	1306,71
339,88	1314,49
340,09	1308,55
340,30	1290,12
340,51	1330,67
340,72	1298,72
340,93	1299,54
341,15	1301,69
341,36	1355,35
341,57	1297,08
341,78	1298,92
341,99	1309,47
342,20	1314,28
342,41	1294,01
342,62	1342,44
342,84	1285,92
343,05	1322,58
343,26	1294,32
343,47	1334,25
343,68	1284,90
343,89	1323,50
344,10	1305,68
344,31	1317,56
344,53	1283,26
344,74	1303,94
344,95	1313,57
345,16	1303,43
345,37	1308,55
345,58	1319,40
345,79	1292,88
346,00	1289,50
346,21	1291,24
346,42	1299,95
346,64	1302,20
346,85	1329,75
347,06	1315,51
347,27	1296,57
347,48	1327,08
347,69	1324,01
347,90	1294,11
348,11	1323,19
348,32	1289,40
348,53	1305,99
348,75	1279,98
348,96	1304,56
349,17	1295,34
349,38	1300,15
349,59	1291,76
349,80	1288,99
350,01	1333,53
350,22	1331,18
350,43	1278,24
350,64	1332,92
350,85	1321,76
351,06	1291,65
351,28	1300,05
351,49	1305,78
351,70	1308,14
351,91	1283,77
352,12	1314,49
352,33	1297,80
352,54	1265,24
352,75	1289,20
352,96	1303,33
353,17	1315,10
353,38	1294,83
353,59	1307,42
353,80	1342,03
354,01	1321,04
354,22	1297,29
354,44	1306,60
354,65	1316,13
354,86	1303,33
355,07	1287,35
355,28	1292,47
355,49	1300,15
355,70	1300,66
355,91	1313,16
356,12	1290,12
356,33	1284,18
356,54	1315,31
356,75	1308,24
356,96	1312,44
357,17	1328,01
357,38	1305,68
357,59	1299,95
357,80	1321,35
358,01	1306,50
358,22	1329,34
358,43	1309,98
358,64	1316,95
358,85	1298,31
359,07	1336,81
359,28	1293,09
359,49	1292,17
359,70	1272,61
359,91	1295,34
360,12	1286,12
360,33	1335,07
360,54	1293,50
360,75	1302,82
360,96	1287,15
361,17	1275,47
361,38	1286,33
361,59	1326,37
361,80	1282,34
362,01	1307,83
362,22	1302,61
362,43	1294,11
362,64	1296,88
362,85	1295,65
363,06	1343,06
363,27	1323,40
363,48	1318,79
363,69	1335,28
363,90	1287,56
364,11	1311,11
364,32	1298,62
364,53	1315,72
364,74	1309,47
364,95	1305,68
365,16	1299,64
365,37	1329,64
365,58	1286,33
365,79	1297,18
366,00	1318,28
366,21	1309,37
366,42	1316,43
366,63	1337,53
366,84	1308,86
367,05	1312,85
367,26	1325,75
367,47	1321,35
367,68	1303,53
367,89	1304,25
368,10	1311,11
368,31	1292,99
368,52	1313,36
368,73	1317,97
368,94	1296,47
369,15	1316,95
369,36	1288,58
369,57	1302,10
369,78	1296,36
369,99	1307,73
370,20	1302,82
370,40	1288,27
370,61	1285,92
370,82	1319,92
371,03	1320,53
371,24	1311,11
371,45	1306,81
371,66	1282,13
371,87	1304,66
372,08	1324,42
372,29	1316,64
372,50	1324,42
372,71	1303,84
372,92	1325,85
373,13	1286,12
373,34	1300,77
373,55	1291,14
373,76	1312,75
373,97	1313,87
374,18	1310,09
374,39	1295,24
374,60	1338,96
374,81	1308,45
375,01	1292,37
375,22	1310,70
375,43	1300,77
375,64	1278,65
375,85	1294,01
376,06	1303,94
376,27	1308,96
376,48	1301,48
376,69	1319,51
376,90	1306,09
377,11	1304,76
377,32	1292,78
377,53	1301,89
377,74	1301,59
377,94	1300,56
378,15	1306,81
378,36	1330,97
378,57	1271,69
378,78	1336,71
378,99	1275,68
379,20	1348,59
379,41	1310,50
379,62	1298,62
379,83	1296,98
380,04	1316,64
380,25	1306,40
380,45	1299,03
380,66	1317,87
380,87	1314,59
381,08	1309,37
381,29	1292,99
381,50	1306,19
381,71	1332,00
381,92	1285,61
382,13	1287,87
382,34	1305,38
382,55	1309,37
382,75	1292,99
382,96	1322,07
383,17	1288,58
383,38	1320,33
383,59	1344,70
383,80	1289,09
384,01	1306,09
384,22	1320,12
384,43	1320,02
384,63	1316,95
384,84	1288,99
385,05	1309,16
385,26	1309,78
385,47	1324,73
385,68	1293,70
385,89	1331,49
386,10	1314,49
386,30	1316,13
386,51	1297,49
386,72	1300,56
386,93	1280,29
387,14	1324,93
387,35	1322,17
387,56	1333,84
387,77	1290,73
387,97	1302,10
388,18	1297,80
388,39	1318,69
388,60	1300,97
388,81	1326,47
389,02	1294,93
389,23	1316,02
389,43	1294,62
389,64	1313,67
389,85	1303,63
390,06	1324,83
390,27	1295,95
390,48	1323,60
390,69	1294,62
390,89	1304,15
391,10	1304,04
391,31	1296,26
391,52	1312,54
391,73	1304,97
391,94	1298,82
392,14	1301,38
392,35	1278,14
392,56	1291,24
392,77	1305,68
392,98	1310,19
393,19	1312,85
393,39	1337,73
393,60	1316,13
393,81	1330,57
394,02	1322,78
394,23	1293,91
394,44	1275,27
394,64	1298,00
394,85	1317,46
395,06	1319,40
395,27	1316,23
395,48	1321,96
395,69	1328,41
395,89	1305,89
396,10	1299,85
396,31	1331,49
396,52	1281,82
396,73	1312,24
396,93	1318,38
397,14	1330,67
397,35	1329,34
397,56	1341,11
397,77	1295,75
397,97	1330,26
398,18	1318,18
398,39	1312,85
398,60	1300,05
398,81	1302,00
399,01	1309,88
399,22	1315,72
399,43	1341,11
399,64	1333,33
399,85	1323,60
400,05	1296,88
400,26	1303,33
400,47	1308,65
400,68	1287,25
400,89	1357,60
401,09	1313,16
401,30	1322,89
401,51	1325,55
401,72	1321,25
401,93	1352,89
402,13	1321,14
402,34	1331,28
402,55	1325,96
402,76	1302,92
402,96	1333,84
403,17	1318,99
403,38	1333,84
403,59	1330,87
403,80	1339,78
404,00	1332,20
404,21	1334,35
404,42	1310,50
404,63	1317,25
404,83	1325,55
405,04	1324,93
405,25	1347,56
405,46	1349,92
405,66	1326,98
405,87	1332,61
406,08	1334,05
406,29	1349,92
406,49	1317,15
406,70	1365,79
406,91	1297,70
407,12	1341,01
407,32	1364,87
407,53	1345,93
407,74	1340,91
407,95	1376,44
408,15	1331,49
408,36	1328,62
408,57	1352,48
408,78	1371,73
408,98	1355,86
409,19	1380,43
409,40	1350,33
409,61	1361,28
409,81	1351,97
410,02	1360,77
410,23	1369,68
410,44	1378,39
410,64	1358,32
410,85	1375,21
411,06	1354,83
411,26	1399,17
411,47	1380,43
411,68	1410,23
411,89	1400,40
412,09	1404,70
412,30	1407,06
412,51	1408,08
412,72	1396,51
412,92	1425,90
413,13	1421,60
413,34	1418,32
413,54	1439,62
413,75	1453,24
413,96	1450,99
414,17	1447,09
414,37	1473,21
414,58	1501,67
414,79	1473,41
414,99	1509,35
415,20	1507,51
415,41	1501,88
415,61	1510,38
415,82	1536,08
416,03	1548,37
416,24	1535,87
416,44	1568,95
416,65	1593,01
416,86	1609,40
417,06	1590,15
417,27	1613,18
417,48	1623,63
417,68	1635,41
417,89	1687,12
418,10	1653,73
418,30	1705,65
418,51	1714,46
418,72	1726,23
418,92	1737,80
419,13	1758,08
419,34	1766,27
419,55	1800,88
419,75	2000,25
419,96	1813,07
420,17	1895,80
420,37	1872,36
420,58	1894,47
420,79	1882,29
420,99	1947,21
421,20	2002,09
421,41	1963,29
421,61	2010,90
421,82	1994,62
422,03	2066,09
422,23	2075,82
422,44	2105,93
422,65	2152,42
422,85	2149,65
423,06	2194,71
423,26	2245,50
423,47	2290,24
423,68	2274,06
423,88	2331,31
424,09	2326,08
424,30	2349,12
424,50	2367,04
424,71	2435,34
424,92	2453,47
425,12	2486,75
425,33	2585,56
425,54	2598,67
425,74	2639,52
425,95	2644,03
426,15	2703,22
426,36	2646,79
426,57	2786,26
426,77	2788,10
426,98	2815,24
427,19	2832,44
427,39	2932,79
427,60	2913,85
427,81	2976,42
428,01	3001,81
428,22	3152,75
428,42	3022,90
428,63	3168,00
428,84	3188,69
429,04	3194,93
429,25	3256,99
429,45	3251,97
429,66	3386,11
429,87	3409,36
430,07	3498,03
430,28	3489,84
430,49	3535,20
430,69	3651,84
430,90	3645,79
431,10	3684,50
431,31	3736,52
431,52	3887,35
431,72	3822,74
431,93	3866,46
432,13	3988,32
432,34	4094,30
432,55	4002,96
432,75	4217,89
432,96	4287,42
433,16	4236,33
433,37	4400,37
433,58	4509,93
433,78	4467,54
433,99	4292,54
434,19	4565,95
434,40	4601,07
434,60	4739,31
434,81	4767,67
435,02	4776,68
435,22	4899,77
435,43	4877,14
435,63	4921,99
435,84	5067,90
436,05	5196,31
436,25	4976,26
436,46	5342,02
436,66	5349,19
436,87	5389,13
437,07	5323,59
437,28	5449,95
437,48	5645,53
437,69	5534,23
437,90	5709,63
438,10	5803,84
438,31	5824,32
438,51	6107,04
438,72	5999,73
438,92	6066,19
439,13	6218,15
439,34	6237,19
439,54	6346,55
439,75	6377,78
439,95	6366,83
440,16	6576,85
440,36	6761,68
440,57	6684,06
440,77	6993,92
440,98	6869,60
441,18	6893,36
441,39	6997,60
441,60	7463,31
441,80	7377,71
442,01	7212,74
442,21	7564,79
442,42	7438,63
442,62	7638,21
442,83	7781,97
443,03	7908,74
443,24	8004,28
443,44	8025,07
443,65	8240,82
443,85	8277,79
444,06	8514,33
444,26	8539,21
444,47	8521,80
444,67	8976,25
444,88	8864,94
445,09	8819,48
445,29	9162,51
445,50	9204,39
445,70	9157,29
445,91	9399,25
446,11	9307,10
446,32	9762,87
446,52	9811,61
446,73	9891,07
446,93	10035,56
447,14	10070,27
447,34	10319,92
447,55	10117,78
447,75	10479,35
447,96	10668,59
448,16	10528,30
448,37	10756,75
448,57	10667,66
448,78	10945,37
448,98	10936,15
449,19	10954,28
449,39	11243,14
449,60	11220,62
449,80	11509,48
450,01	11543,68
450,21	11540,41
450,42	11726,26
450,62	11639,43
450,83	11675,16
451,03	11724,42
451,23	11782,99
451,44	11759,85
451,64	12049,02
451,85	11843,81
452,05	12100,94
452,26	11972,53
452,46	12049,43
452,67	11890,40
452,87	11781,45
453,08	11850,98
453,28	11589,15
453,49	12075,95
453,69	11749,50
453,90	11861,43
454,10	11997,10
454,31	11854,67
454,51	11774,90
454,71	11627,96
454,92	11518,60
455,12	11307,45
455,33	11701,58
455,53	11611,98
455,74	11820,47
455,94	11908,32
456,15	11826,20
456,35	12042,67
456,55	11656,22
456,76	11792,41
456,96	12271,12
457,17	11231,78
457,37	12247,98
457,58	11558,74
457,78	11864,19
457,99	11528,02
458,19	10683,74
458,39	11302,02
458,60	11390,49
458,80	11217,03
459,01	10835,39
459,21	10700,23
459,42	10930,42
459,62	10199,91
459,82	10951,31
460,03	10478,02
460,23	10594,55
460,44	10359,75
460,64	9657,61
460,85	10479,25
461,05	9717,00
461,25	9526,64
461,46	10181,89
461,66	9755,50
461,87	9412,16
462,07	9413,08
462,27	9024,89
462,48	8871,80
462,68	9062,67
462,89	8885,32
463,09	8864,63
463,29	8899,45
463,50	8743,50
463,70	8933,85
463,91	8590,82
464,11	8354,38
464,31	8719,23
464,52	8669,15
464,72	8734,59
464,93	8495,49
465,13	8896,99
465,33	8416,64
465,54	8160,44
465,74	8063,88
465,95	8281,37
466,15	8410,80
466,35	8396,57
466,56	8187,98
466,76	8226,59
466,96	8071,04
467,17	8087,22
467,37	8079,75
467,58	8048,52
467,78	7924,82
467,98	8147,54
468,19	7771,53
468,39	8047,80
468,59	8122,55
468,80	7938,75
469,00	7780,23
469,21	7719,10
469,41	7719,10
469,61	8035,41
469,82	7619,57
470,02	7974,69
470,22	8078,62
470,43	7876,08
470,63	7552,60
470,83	8095,52
471,04	7627,86
471,24	7748,69
471,45	7538,78
471,65	7628,07
471,85	7535,30
472,06	7668,52
472,26	7682,55
472,46	7614,96
472,67	7728,73
472,87	7611,99
473,07	7527,72
473,28	7437,81
473,48	7594,89
473,68	7605,64
473,89	7535,71
474,09	7496,38
474,29	7445,19
474,50	7603,19
474,70	7410,06
474,90	7549,94
475,11	7628,99
475,31	7526,80
475,51	7508,98
475,72	7495,87
475,92	7491,67
476,12	7340,94
476,33	7573,70
476,53	7538,98
476,73	7556,49
476,93	7648,24
477,14	7501,50
477,34	7469,86
477,54	7621,62
477,75	7647,22
477,95	7624,69
478,15	7664,93
478,36	7710,60
478,56	7711,63
478,76	7843,41
478,97	7875,26
479,17	7755,35
479,37	7802,25
479,57	7892,77
479,78	7912,84
479,98	7905,16
480,18	8038,89
480,39	8152,86
480,59	8139,24
480,79	8177,85
480,99	8300,21
481,20	8270,52
481,40	8384,69
481,60	8508,39
481,81	8413,16
482,01	8462,72
482,21	8512,69
482,41	8631,88
482,62	8697,31
482,82	8774,21
483,02	8871,39
483,23	8899,35
483,43	9044,14
483,63	8990,17
483,83	9112,23
484,04	9317,54
484,24	9219,14
484,44	9449,64
484,64	9410,11
484,85	9480,56
485,05	9656,38
485,25	9736,25
485,45	9732,15
485,66	9854,72
485,86	9983,75
486,06	10004,33
486,26	10127,31
486,47	10229,81
486,67	10355,45
486,87	10489,90
487,07	10514,89
487,28	10551,34
487,48	10598,03
487,68	10970,46
487,88	10876,56
488,09	11030,15
488,29	11041,62
488,49	11294,14
488,69	11303,97
488,90	11418,55
489,10	11392,85
489,30	11462,69
489,50	11655,71
489,71	11760,36
489,91	11957,48
490,11	11964,23
490,31	12108,41
490,52	12187,87
490,72	12316,28
490,92	12551,90
491,12	12587,53
491,32	12618,15
491,53	12821,10
491,73	12802,06
491,93	13015,56
492,13	13077,82
492,33	13179,40
492,54	13247,39
492,74	13526,12
492,94	13495,29
493,14	13728,25
493,35	13655,14
493,55	13891,17
493,75	14071,39
493,95	14064,94
494,15	14108,66
494,36	14459,79
494,56	14466,95
494,76	14569,25
494,96	14731,76
495,16	14782,24
495,37	14937,37
495,57	14977,31
495,77	15046,22
495,97	15295,77
496,17	15415,47
496,37	15504,05
496,58	15617,91
496,78	15526,57
496,98	15867,25
497,18	15986,14
497,38	16096,22
497,59	16236,60
497,79	16298,25
497,99	16441,61
498,19	16533,25
498,39	16584,55
498,59	16795,29
498,80	16822,53
499,00	17049,65
499,20	17105,04
499,40	16989,74
499,60	17192,70
499,80	17430,77
500,01	17409,58
500,21	17446,13
500,41	17437,43
500,61	17665,88
500,81	17674,79
501,01	17627,99
501,22	17903,34
501,42	17835,35
501,62	17857,37
501,82	18052,33
502,02	17982,91
502,22	17950,34
502,42	18053,56
502,63	18252,11
502,83	18248,84
503,03	18305,97
503,23	18438,89
503,43	18462,85
503,63	18493,16
503,83	18748,13
504,04	18603,65
504,24	18873,88
504,44	18840,49
504,64	19051,64
504,84	19139,09
505,04	19186,80
505,24	19448,64
505,44	19524,62
505,65	19504,75
505,85	19682,93
506,05	19706,99
506,25	19813,38
506,45	19663,47
506,65	19762,28
506,85	20104,91
507,05	20007,32
507,26	20121,60
507,46	20198,09
507,66	20288,71
507,86	20220,82
508,06	20331,82
508,26	20363,16
508,46	20396,95
508,66	20365,21
508,86	20584,85
509,06	20710,49
509,27	20653,15
509,47	20615,37
509,67	20757,90
509,87	20727,08
510,07	20810,02
510,27	20954,82
510,47	20952,26
510,67	20961,16
510,87	20977,04
511,07	21062,54
511,28	21177,02
511,48	21084,35
511,68	21138,21
511,88	21324,27
512,08	21271,64
512,28	21409,98
512,48	21457,69
512,68	21424,62
512,88	21512,58
513,08	21781,68
513,28	21725,36
513,48	21763,46
513,68	21910,60
513,89	21920,33
514,09	21805,54
514,29	22184,83
514,49	22132,81
514,69	22054,27
514,89	22293,88
515,09	22358,29
515,29	22431,20
515,49	22352,04
515,69	22540,05
515,89	22616,03
516,09	22706,85
516,29	22683,61
516,49	22725,90
516,69	22971,45
516,89	22928,65
517,09	22885,13
517,29	23102,62
517,50	23164,68
517,70	23146,14
517,90	23248,03
518,10	23152,49
518,30	23587,38
518,50	23401,42
518,70	23437,06
518,90	23880,13
519,10	23899,18
519,30	23992,67
519,50	24011,00
519,70	24105,00
519,90	24096,81
520,10	24440,66
520,30	24176,58
520,50	24200,03
520,70	24460,43
520,90	24437,28
521,10	24490,94
521,30	24607,98
521,50	24927,16
521,70	24912,62
521,90	25027,00
522,10	25322,83
522,30	24977,13
522,50	25365,42
522,70	25316,07
522,90	25432,90
523,10	25324,06
523,30	25683,99
523,50	25680,20
523,70	25758,74
523,90	25771,43
524,10	25939,16
524,30	25808,71
524,50	25932,51
524,70	26038,59
524,90	26143,14
525,10	26257,42
525,30	26091,22
525,50	26547,41
525,70	26594,61
525,90	26436,51
526,10	26533,48
526,30	26748,72
526,50	26738,08
526,70	26805,15
526,90	26870,89
527,10	26803,00
527,30	27011,17
527,50	27309,05
527,70	27141,83
527,90	27147,26
528,10	27173,37
528,30	27304,75
528,50	27416,46
528,70	27392,71
528,90	27639,59
529,10	27539,85
529,30	27483,74
529,50	27744,14
529,70	27645,02
529,90	27918,73
530,10	27929,38
530,29	27786,74
530,49	28000,34
530,69	28075,19
530,89	28191,11
531,09	27989,28
531,29	28017,65
531,49	28208,11
531,69	28296,68
531,89	28284,70
532,09	28417,92
532,29	28328,02
532,49	28405,12
532,69	28600,50
532,89	28560,77
533,09	28637,67
533,29	28792,80
533,49	28627,94
533,68	28738,53
533,88	29164,30
534,08	29019,51
534,28	28853,42
534,48	28958,18
534,68	29009,78
534,88	28808,37
535,08	29136,86
535,28	29025,86
535,48	29115,15
535,68	29151,30
535,88	29235,57
536,08	29316,47
536,27	29389,79
536,47	29252,47
536,67	29825,18
536,87	29537,03
537,07	29435,97
537,27	29717,26
537,47	29806,24
537,67	29631,65
537,87	29815,46
538,07	30154,70
538,27	29945,40
538,46	30073,19
538,66	30032,23
538,86	29779,51
539,06	30298,98
539,26	30196,38
539,46	30049,85
539,66	30234,47
539,86	30204,36
540,06	30427,08
540,25	30175,18
540,45	30483,61
540,65	30408,96
540,85	30590,51
541,05	30690,55
541,25	30700,08
541,45	30808,82
541,65	30561,33
541,85	30684,72
542,04	30787,11
542,24	30740,11
542,44	30910,40
542,64	30991,50
542,84	30909,28
543,04	30995,80
543,24	30998,06
543,43	31096,87
543,63	31153,39
543,83	31048,33
544,03	30999,80
544,23	31275,45
544,43	31310,06
544,63	31156,77
544,82	31582,24
545,02	31271,56
545,22	31677,98
545,42	31188,93
545,62	31820,11
545,82	31621,56
546,02	31628,73
546,21	31687,20
546,41	31725,49
546,61	31462,53
546,81	32034,12
547,01	31647,67
547,21	32111,84
547,40	31912,06
547,60	32051,22
547,80	31877,15
548,00	32258,37
548,20	32085,63
548,40	32042,42
548,59	32262,88
548,79	32231,03
548,99	32384,84
549,19	32171,64
549,39	32249,77
549,59	32431,84
549,78	32238,30
549,98	32495,73
550,18	32295,44
550,38	32455,08
550,58	32517,34
550,77	32698,89
550,97	32724,29
551,17	32343,57
551,37	32957,14
551,57	32698,18
551,76	32580,52
551,96	32662,95
552,16	32706,57
552,36	32987,14
552,56	32806,41
552,75	33051,45
552,95	32998,82
553,15	33230,65
553,35	33303,35
553,55	32900,41
553,74	33347,89
553,94	33197,47
554,14	33176,79
554,34	33132,14
554,54	33349,12
554,73	33507,74
554,93	33502,00
555,13	33702,60
555,33	33493,40
555,53	33799,88
555,72	33574,30
555,92	33736,39
556,12	33858,45
556,32	33797,42
556,51	33799,68
556,71	34049,84
556,91	33777,05
557,11	34020,45
557,30	34159,71
557,50	34178,35
557,70	33975,39
557,90	34344,74
558,10	34270,61
558,29	34113,83
558,49	34426,97
558,69	34255,76
558,89	34140,56
559,08	34519,84
559,28	34505,10
559,48	34473,25
559,68	34524,15
559,87	34702,11
560,07	34646,61
560,27	34771,23
560,47	34670,57
560,66	34849,47
560,86	34703,65
561,06	34690,03
561,25	35061,53
561,45	35050,78
561,65	35032,55
561,85	34898,10
562,04	34982,48
562,24	35137,20
562,44	35225,47
562,64	35086,93
562,83	35322,85
563,03	35276,36
563,23	35479,52
563,42	35407,64
563,62	35727,84
563,82	35464,67
564,02	35770,85
564,21	35670,60
564,41	35674,69
564,61	35885,94
564,80	35995,41
565,00	35886,04
565,20	35789,89
565,40	35907,86
565,59	36019,47
565,79	36166,92
565,99	36395,78
566,18	36440,63
566,38	36227,95
566,58	36338,13
566,78	36218,33
566,97	36540,58
567,17	36607,54
567,37	36664,89
567,56	36647,58
567,76	36738,31
567,96	37013,86
568,15	36819,92
568,35	36849,61
568,55	37048,78
568,74	36914,53
568,94	37177,19
569,14	37172,58
569,33	37063,63
569,53	37151,59
569,73	37564,87
569,92	37184,05
570,12	37242,41
570,32	37444,75
570,52	37271,19
570,71	37616,27
570,91	37547,36
571,11	37878,31
571,30	37478,34
571,50	37869,50
571,70	38061,91
571,89	37804,17
572,09	38051,26
572,28	38087,10
572,48	38212,33
572,68	38178,75
572,87	38416,51
573,07	38689,61
573,27	38291,28
573,46	38640,87
573,66	38829,08
573,86	38754,94
574,05	39103,10
574,25	38869,22
574,45	38740,40
574,64	38995,07
574,84	39163,20
575,04	39353,97
575,23	39304,31
575,43	39482,69
575,62	39484,94
575,82	39345,68
576,02	39116,00
576,21	39508,49
576,41	39599,83
576,61	39702,64
576,80	39620,11
577,00	39793,67
577,19	39795,00
577,39	40220,67
577,59	40099,94
577,78	40178,38
577,98	40368,95
578,18	40148,79
578,37	40291,94
578,57	40496,43
578,76	40405,50
578,96	40337,71
579,16	40631,19
579,35	40966,54
579,55	40481,28
579,74	40572,72
579,94	40787,96
580,14	41019,28
580,33	41237,39
580,53	41275,27
580,72	41202,37
580,92	41439,32
581,12	41310,40
581,31	41553,18
581,51	41752,96
581,70	41532,81
581,90	41839,49
582,10	41685,07
582,29	42127,74
582,49	41877,07
582,68	42214,37
582,88	42257,58
583,07	42199,93
583,27	42280,11
583,47	42537,44
583,66	42588,64
583,86	42461,87
584,05	42585,97
584,25	42674,34
584,44	42735,17
584,64	42560,48
584,84	42827,02
585,03	42826,92
585,23	42620,07
585,42	43039,91
585,62	42692,98
585,81	43011,64
586,01	42970,58
586,20	43166,88
586,40	43243,37
586,60	42919,28
586,79	43201,39
586,99	43175,28
587,18	43433,73
587,38	43446,84
587,57	43341,57
587,77	43687,06
587,96	43615,90
588,16	43458,92
588,35	43669,86
588,55	43912,03
588,75	43667,40
588,94	43785,67
589,14	44000,61
589,33	43734,27
589,53	44239,81
589,72	43784,34
589,92	44476,45
590,11	44023,65
590,31	44329,72
590,50	44617,05
590,70	44159,22
590,89	44589,71
591,09	44200,18
591,28	44089,29
591,48	44384,30
591,67	43925,76
591,87	44566,97
592,06	44475,74
592,26	44497,45
592,45	44378,46
592,65	44728,46
592,84	44680,12
593,04	44605,78
593,23	44573,32
593,43	44928,65
593,62	44596,87
593,82	44683,20
594,01	44576,29
594,21	45011,18
594,40	44728,97
594,60	44782,22
594,79	44941,34
594,99	44672,24
595,18	45205,84
595,38	44910,01
595,57	45118,08
595,77	45370,49
595,96	45101,39
596,16	45054,80
596,35	44923,83
596,55	44797,68
596,74	44914,72
596,94	44927,52
597,13	44857,89
597,33	45000,43
597,52	44665,48
597,72	44810,68
597,91	44961,00
598,11	44951,58
598,30	44772,08
598,50	45289,40
598,69	44827,99
598,88	44905,20
599,08	44823,28
599,27	44998,58
599,47	44827,27
599,66	45052,96
599,86	45119,21
600,05	45006,57
600,25	45260,01
600,44	44698,15
600,64	44984,66
600,83	45093,00
601,02	45197,75
601,22	44889,53
601,41	44573,43
601,61	44861,68
601,80	44788,56
602,00	45002,99
602,19	44440,41
602,38	44453,11
602,58	44284,05
602,77	44370,68
602,97	44532,88
603,16	44886,05
603,36	43995,18
603,55	44628,72
603,74	43909,06
603,94	44300,43
604,13	44328,90
604,33	44164,34
604,52	43988,53
604,72	43985,76
604,91	43950,74
605,10	44212,68
605,30	43741,34
605,49	43882,24
605,69	44155,64
605,88	43731,71
606,07	44141,92
606,27	43913,77
606,46	43736,52
606,66	43846,91
606,85	43385,50
607,04	43599,00
607,24	43223,71
607,43	43507,87
607,63	43265,08
607,82	43258,73
608,01	43341,78
608,21	42941,40
608,40	43179,48
608,60	42783,40
608,79	42849,24
608,98	42576,76
609,18	43022,09
609,37	42575,63
609,57	42307,55
609,76	42465,45
609,95	42314,11
610,15	42394,80
610,34	42321,58
610,53	42110,95
610,73	42002,41
610,92	41967,49
611,11	42028,72
611,31	41805,19
611,50	41694,19
611,70	41605,51
611,89	41469,73
612,08	41458,67
612,28	41239,84
612,47	41305,89
612,66	41263,91
612,86	41227,97
613,05	40906,95
613,24	40777,52
613,44	40935,93
613,63	40800,96
613,82	40984,87
614,02	40704,71
614,21	40506,36
614,41	40693,65
614,60	40754,27
614,79	40437,96
614,99	40377,75
615,18	40575,48
615,37	40220,88
615,57	40791,65
615,76	40229,07
615,95	40048,23
616,15	40086,84
616,34	40389,12
616,53	40271,97
616,73	40545,79
616,92	40359,52
617,11	40306,58
617,30	40074,24
617,50	40179,10
617,69	40262,35
617,88	40287,74
618,08	39892,69
618,27	40267,37
618,46	40197,63
618,66	40199,07
618,85	40235,83
619,04	40243,92
619,24	40460,69
619,43	40465,40
619,62	40315,39
619,82	40435,71
620,01	40314,98
620,20	40613,88
620,39	40381,75
620,59	40358,81
620,78	40565,65
620,97	40693,65
621,17	40598,11
621,36	40820,83
621,55	40497,05
621,74	40591,25
621,94	40441,55
622,13	40715,87
622,32	40635,28
622,52	40464,18
622,71	40535,45
622,90	40443,90
623,09	40479,13
623,29	40591,25
623,48	40484,86
623,67	40550,40
623,86	40354,81
624,06	40532,48
624,25	40478,72
624,44	40436,32
624,64	40221,70
624,83	40255,08
625,02	39710,73
625,21	40041,17
625,41	40062,36
625,60	39887,67
625,79	39684,41
625,98	39761,42
626,18	40143,98
626,37	39507,88
626,56	39318,24
626,75	39824,80
626,95	39248,91
627,14	39347,42
627,33	39431,49
627,52	39182,05
627,72	38946,53
627,91	38873,62
628,10	39058,14
628,29	38945,40
628,49	38701,08
628,68	38538,98
628,87	38485,22
629,06	38822,52
629,25	38454,50
629,45	38081,57
629,64	38215,71
629,83	38144,75
630,02	37838,37
630,22	37665,52
630,41	37853,73
630,60	37548,79
630,79	37305,08
630,98	37235,14
631,18	37161,62
631,37	36854,12
631,56	37089,84
631,75	37071,31
631,94	36871,42
632,14	36626,18
632,33	36436,85
632,52	36525,93
632,71	36250,17
632,90	36345,71
633,10	36129,04
633,29	35807,61
633,48	35777,71
633,67	35534,51
633,86	35512,60
634,06	35588,37
634,25	35155,84
634,44	35085,19
634,63	34710,31
634,82	34836,26
635,02	34474,17
635,21	34624,09
635,40	34482,26
635,59	34345,26
635,78	34179,16
635,97	34087,21
636,17	33644,54
636,36	33946,00
636,55	33559,76
636,74	33746,94
636,93	33115,35
637,12	33389,78
637,32	33454,80
637,51	32963,90
637,70	32798,22
637,89	32725,82
638,08	32729,61
638,27	32588,71
638,47	32292,37
638,66	32329,44
638,85	32054,09
639,04	32145,22
639,23	31732,56
639,42	31896,60
639,62	31839,16
639,81	31602,51
640,00	31495,40
640,19	31230,50
640,38	31069,84
640,57	31103,53
640,76	30955,76
640,95	30875,38
641,15	30711,95
641,34	30518,52
641,53	30447,66
641,72	30120,71
641,91	30345,98
642,10	30016,87
642,29	29910,99
642,49	29987,38
642,68	29563,56
642,87	29728,21
643,06	29650,49
643,25	29502,42
643,44	29224,10
643,63	29189,19
643,82	29121,50
644,01	29163,69
644,21	28889,88
644,40	28674,22
644,59	28395,29
644,78	28478,85
644,97	28120,45
645,16	28242,92
645,35	27929,07
645,54	28138,99
645,73	27686,28
645,92	27844,08
646,12	27510,57
646,31	27319,70
646,50	27300,75
646,69	27439,20
646,88	27060,43
647,07	27092,27
647,26	26914,00
647,45	26790,61
647,64	26528,98
647,83	26699,88
648,02	26475,83
648,22	26411,63
648,41	26238,99
648,60	26176,11
648,79	25963,12
648,98	25942,44
649,17	25692,38
649,36	25733,96
649,55	25430,75
649,74	25235,79
649,93	25173,43
650,12	25179,67
650,31	25056,28
650,50	24681,91
650,69	24940,78
650,88	24866,54
651,08	24434,93
651,27	24642,70
651,46	24441,18
651,65	24168,69
651,84	23960,93
652,03	23919,46
652,22	23831,80
652,41	23833,75
652,60	23704,93
652,79	23607,45
652,98	23342,85
653,17	23314,69
653,36	23172,87
653,55	23028,18
653,74	23012,00
653,93	22917,90
654,12	22579,98
654,31	22667,53
654,50	22607,53
654,69	22362,08
654,88	22256,51
655,07	22201,93
655,26	21932,52
655,45	21990,78
655,64	21798,07
655,83	21786,09
656,02	21653,38
656,21	21614,98
656,40	21346,90
656,59	21431,28
656,78	21117,42
656,97	21052,71
657,17	21053,02
657,36	20830,50
657,55	20667,59
657,74	20733,53
657,93	20478,56
658,12	20394,90
658,31	20328,75
658,50	20276,43
658,69	20034,36
658,87	20308,99
659,06	19904,62
659,25	19844,92
659,44	19696,13
659,63	19651,49
659,82	19574,89
660,01	19371,74
660,20	19378,19
660,39	19219,67
660,58	19215,27
660,77	19066,38
660,96	19003,10
661,15	18685,87
661,34	18882,68
661,53	18683,41
661,72	18524,70
661,91	18565,96
662,10	18327,78
662,29	18286,01
662,48	18055,40
662,67	18085,71
662,86	17903,65
663,05	17874,16
663,24	17834,74
663,43	17633,52
663,62	17540,55
663,81	17460,26
664,00	17438,66
664,19	17253,32
664,38	17269,91
664,57	17045,96
664,76	17034,39
664,94	16907,72
665,13	16713,37
665,32	16638,01
665,51	16714,91
665,70	16461,37
665,89	16441,71
666,08	16282,58
666,27	16339,31
666,46	16129,19
666,65	16016,24
666,84	15910,16
667,03	15977,02
667,22	15739,77
667,41	15806,12
667,60	15707,82
667,78	15603,17
667,97	15535,79
668,16	15398,88
668,35	15325,05
668,54	15161,01
668,73	15153,43
668,92	14921,50
669,11	15040,69
669,30	14824,43
669,49	14723,05
669,68	14725,30
669,86	14647,79
670,05	14563,62
670,24	14379,10
670,43	14269,84
670,62	14280,59
670,81	14152,59
671,00	14041,69
671,19	14022,65
671,38	13820,41
671,57	13797,17
671,75	13813,55
671,94	13638,76
672,13	13637,83
672,32	13553,76
672,51	13467,95
672,70	13475,33
672,89	13257,63
673,08	13184,31
673,26	13169,26
673,45	12977,67
673,64	13017,91
673,83	12886,84
674,02	12821,72
674,21	12737,65
674,40	12727,10
674,59	12619,89
674,77	12566,34
674,96	12428,20
675,15	12372,09
675,34	12295,59
675,53	12255,76
675,72	12050,15
675,91	12040,52
676,09	11983,59
676,28	11990,24
676,47	11770,39
676,66	11715,81
676,85	11788,21
677,04	11713,25
677,22	11613,11
677,41	11544,09
677,60	11546,14
677,79	11349,13
677,98	11349,54
678,17	11225,02
678,36	11296,90
678,54	11166,34
678,73	11096,51
678,92	11012,75
679,11	11014,90
679,30	10889,87
679,48	10942,09
679,67	10791,98
679,86	10851,26
680,05	10728,59
680,24	10628,34
680,43	10588,61
680,61	10492,97
680,80	10377,88
680,99	10345,52
681,18	10266,06
681,37	10256,53
681,55	10277,73
681,74	10084,71
681,93	10110,82
682,12	9941,66
682,31	9918,93
682,49	9891,38
682,68	9826,77
682,87	9773,11
683,06	9752,53
683,25	9637,95
683,43	9696,72
683,62	9505,65
683,81	9524,18
684,00	9459,77
684,19	9380,31
684,37	9276,68
684,56	9271,15
684,75	9194,46
684,94	9143,57
685,12	9113,77
685,31	9081,21
685,50	9070,56
685,69	9041,68
685,88	8949,32
686,06	8875,90
686,25	8811,59
686,44	8804,63
686,63	8715,03
686,81	8697,21
687,00	8662,40
687,19	8642,33
687,38	8522,01
687,56	8463,64
687,75	8445,93
687,94	8401,18
688,13	8292,53
688,31	8292,23
688,50	8195,77
688,69	8178,97
688,88	8161,87
689,06	8061,11
689,25	8010,73
689,44	7928,30
689,63	7910,28
689,81	7847,51
690,00	7850,27
690,19	7779,62
690,38	7689,20
690,56	7662,37
690,75	7673,53
690,94	7584,45
691,13	7601,96
691,31	7584,45
691,50	7534,17
691,69	7468,12
691,87	7445,70
692,06	7391,12
692,25	7408,22
692,44	7294,05
692,62	7290,36
692,81	7284,93
693,00	7186,73
693,18	7163,90
693,37	7152,22
693,56	7086,59
693,75	7070,10
693,93	7095,80
694,12	7008,56
694,31	6920,80
694,49	6853,32
694,68	6878,31
694,87	6792,91
695,05	6833,35
695,24	6805,71
695,43	6722,87
695,62	6677,81
695,80	6633,37
695,99	6610,23
696,18	6555,86
696,36	6563,43
696,55	6441,37
696,74	6434,10
696,92	6432,77
697,11	6387,72
697,30	6373,89
697,48	6309,38
697,67	6304,16
697,86	6230,84
698,04	6225,31
698,23	6148,72
698,42	6163,57
698,60	6075,09
698,79	6076,94
698,98	6043,04
699,16	6003,11
699,35	5969,73
699,54	5947,81
699,72	5901,43
699,91	5945,97
700,10	5858,83
700,28	5836,20
700,47	5816,13
700,66	5780,29
700,84	5715,78
701,03	5672,77
701,21	5744,25
701,40	5683,52
701,59	5597,30
701,77	5594,13
701,96	5575,08
702,15	5521,73
702,33	5498,59
702,52	5455,69
702,71	5457,43
702,89	5427,53
703,08	5389,43
703,26	5361,79
703,45	5366,09
703,64	5291,23
703,82	5279,66
704,01	5210,03
704,20	5179,82
704,38	5170,81
704,57	5143,68
704,75	5131,70
704,94	5079,27
705,13	5094,12
705,31	5095,86
705,50	5024,79
705,68	5017,93
705,87	5000,12
706,06	4937,35
706,24	4950,04
706,43	4872,22
706,61	4868,84
706,80	4804,53
706,99	4850,72
707,17	4816,72
707,36	4801,05
707,54	4756,51
707,73	4751,08
707,92	4727,22
708,10	4651,55
708,29	4654,32
708,47	4649,71
708,66	4579,77
708,84	4553,97
709,03	4527,75
709,22	4541,68
709,40	4514,54
709,59	4526,63
709,77	4491,61
709,96	4485,36
710,14	4406,41
710,33	4415,52
710,52	4378,15
710,70	4393,92
710,89	4310,46
711,07	4282,71
711,26	4301,14
711,44	4267,86
711,63	4242,47
711,81	4237,25
712,00	4210,01
712,19	4172,63
712,37	4171,61
712,56	4152,36
712,74	4116,21
712,93	4116,52
713,11	4094,20
713,30	4041,87
713,48	4056,10
713,67	4043,30
713,85	4011,97
714,04	4009,62
714,22	3996,20
714,41	4000,30
714,59	3955,34
714,78	3939,37
714,97	3919,40
715,15	3840,56
715,34	3860,73
715,52	3832,47
715,71	3848,95
715,89	3789,46
716,08	3804,41
716,26	3783,72
716,45	3787,21
716,63	3784,34
716,82	3727,20
717,00	3710,41
717,19	3698,63
717,37	3704,67
717,56	3657,06
717,74	3654,60
717,93	3646,10
718,11	3635,66
718,30	3577,29
718,48	3591,63
718,67	3605,86
718,85	3556,40
719,04	3482,16
719,22	3469,16
719,41	3469,77
719,59	3497,73
719,78	3430,14
719,96	3403,01
720,15	3420,31
720,33	3441,82
720,52	3367,99
720,70	3355,60
720,88	3376,79
721,07	3359,18
721,25	3318,12
721,44	3294,16
721,62	3302,96
721,81	3260,67
721,99	3250,23
722,18	3215,93
722,36	3240,19
722,55	3226,06
722,73	3200,26
722,92	3222,17
723,10	3184,59
723,28	3171,79
723,47	3157,66
723,65	3139,43
723,84	3149,57
724,02	3089,77
724,21	3112,20
724,39	3085,16
724,58	3053,52
724,76	3088,64
724,94	3022,09
725,13	3048,81
725,31	2994,13
725,50	3011,23
725,68	3011,44
725,87	2988,70
726,05	2961,06
726,23	2940,68
726,42	2910,88
726,60	2908,22
726,79	2892,45
726,97	2917,74
727,16	2920,20
727,34	2863,88
727,52	2848,72
727,71	2859,99
727,89	2847,39
728,08	2801,93
728,26	2823,74
728,44	2797,12
728,63	2851,69
728,81	2768,85
729,00	2764,86
729,18	2776,84
729,36	2751,65
729,55	2778,68
729,73	2753,29
729,92	2724,00
730,10	2688,37
730,28	2706,08
730,47	2694,92
730,65	2703,83
730,84	2703,93
731,02	2654,99
731,20	2686,73
731,39	2684,68
731,57	2639,01
731,75	2663,18
731,94	2591,91
732,12	2601,74
732,31	2595,90
732,49	2570,41
732,67	2565,70
732,86	2545,22
733,04	2564,57
733,22	2547,88
733,41	2537,23
733,59	2529,04
733,78	2513,37
733,96	2503,64
734,14	2485,93
734,33	2477,84
734,51	2461,56
734,69	2464,32
734,88	2459,92
735,06	2449,47
735,24	2447,63
735,43	2450,09
735,61	2431,55
735,79	2443,23
735,98	2415,89
736,16	2447,83
736,34	2415,07
736,53	2415,58
736,71	2408,62
736,89	2367,25
737,08	2384,25
737,26	2354,96
737,44	2355,68
737,63	2351,89
737,81	2351,27
737,99	2348,82
738,18	2334,89
738,36	2342,16
738,54	2310,72
738,73	2323,83
738,91	2320,35
739,09	2311,95
739,28	2280,00
739,46	2256,86
739,64	2265,46
739,82	2265,36
740,01	2252,56
740,19	2289,12
740,37	2243,96
740,56	2246,11
740,74	2227,47
740,92	2235,26
741,11	2194,30
741,29	2194,30
741,47	2232,18
741,65	2173,30
741,84	2185,59
742,02	2194,81
742,20	2177,50
742,39	2155,90
742,57	2147,19
742,75	2140,84
742,93	2151,80
743,12	2121,59
743,30	2119,75
743,48	2122,11
743,67	2131,73
743,85	2105,72
744,03	2122,82
744,21	2093,33
744,40	2095,99
744,58	2089,95
744,76	2074,59
744,94	2070,60
745,13	2085,14
745,31	2048,38
745,49	2061,59
745,67	2039,57
745,86	2058,52
746,04	2040,39
746,22	2030,46
746,40	2011,31
746,59	2017,76
746,77	2008,55
746,95	2041,72
747,13	2024,52
747,32	2007,11
747,50	2000,56
747,68	1991,24
747,86	1984,58
748,05	2003,63
748,23	1947,62
748,41	1998,00
748,59	1953,45
748,77	1937,89
748,96	1935,74
749,14	1913,72
749,32	1972,60
749,50	1944,03
749,69	1936,46
749,87	1938,10
750,05	1909,94
750,23	1875,84
750,41	1897,34
750,60	1928,47
750,78	1889,15
750,96	1899,59
751,14	1895,70
751,32	1876,35
751,51	1869,69
751,69	1866,83
751,87	1851,47
752,05	1877,07
752,23	1888,33
752,42	1860,89
752,60	1864,06
752,78	1848,70
752,96	1834,57
753,14	1832,11
753,33	1838,36
753,51	1832,83
753,69	1832,52
753,87	1828,32
754,05	1838,97
754,23	1838,67
754,42	1806,21
754,60	1819,62
754,78	1842,05
754,96	1798,83
755,14	1806,00
755,32	1822,18
755,51	1794,64
755,69	1777,02
755,87	1778,97
756,05	1774,26
756,23	1788,80
756,41	1792,48
756,60	1781,94
756,78	1796,79
756,96	1758,80
757,14	1767,09
757,32	1759,51
757,50	1763,92
757,68	1756,24
757,87	1769,24
758,05	1771,19
758,23	1755,11
758,41	1805,28
758,59	1779,68
758,77	1779,68
758,95	1763,10
759,14	1757,67
759,32	1793,92
759,50	1755,62
759,68	1746,00
759,86	1741,59
760,04	1743,74
760,22	1731,15
760,40	1792,18
760,59	1745,48
760,77	1743,23
760,95	1728,28
761,13	1725,62
761,31	1730,53
761,49	1720,19
761,67	1746,41
761,85	1716,91
762,03	1743,03
762,22	1749,68
762,40	1717,94
762,58	1710,36
762,76	1733,30
762,94	1726,54
763,12	1717,32
763,30	1738,73
763,48	1718,86
763,66	1690,70
763,84	1693,87
764,02	1695,92
764,21	1714,05
764,39	1737,39
764,57	1693,47
764,75	1697,87
764,93	1702,27
765,11	1696,33
765,29	1687,83
765,47	1705,86
765,65	1695,41
765,83	1698,59
766,01	1703,19
766,19	1693,47
766,37	1702,89
766,56	1682,51
766,74	1670,84
766,92	1664,59
767,10	1657,73
767,28	1677,90
767,46	1678,82
767,64	1664,59
767,82	1681,79
768,00	1657,01
768,18	1658,75
768,36	1667,25
768,54	1679,64
768,72	1659,47
768,90	1644,52
769,08	1637,66
769,26	1648,51
769,44	1640,32
769,62	1644,72
769,80	1659,57
769,98	1646,67
770,16	1627,32
770,34	1618,20
770,52	1619,74
770,71	1624,76
770,89	1615,13
771,07	1644,11
771,25	1604,17
771,43	1625,78
771,61	1629,16
771,79	1602,84
771,97	1601,72
772,15	1601,20
772,33	1614,93
772,51	1621,68
772,69	1577,04
772,87	1590,55
773,05	1597,21
773,23	1614,00
773,41	1589,94
773,59	1597,21
773,77	1574,68
773,95	1600,39
774,13	1588,71
774,31	1570,18
774,49	1595,47
774,67	1566,59
774,85	1570,38
775,03	1572,84
775,21	1569,97
775,39	1551,44
775,57	1558,91
775,75	1568,85
775,93	1562,19
776,10	1526,35
776,28	1555,02
776,46	1512,63
776,64	1524,51
776,82	1517,14
777,00	1861,60
777,18	1516,01
777,36	1542,63
777,54	1519,70
777,72	1505,46
777,90	1520,72
778,08	1503,82
778,26	1499,52
778,44	1512,94
778,62	1519,80
778,80	1535,67
778,98	1519,18
779,16	1504,13
779,34	1525,94
779,52	1490,61
779,70	1521,74
779,88	1493,48
780,05	1475,15
780,23	1469,62
780,41	1483,86
780,59	1496,04
780,77	1497,47
780,95	1493,07
781,13	1502,70
781,31	1481,09
781,49	1501,26
781,67	1481,60
781,85	1478,94
782,03	1464,50
782,21	1471,26
782,39	1479,56
782,56	1473,72
782,74	1484,57
782,92	1477,81
783,10	1504,34
783,28	1453,96
783,46	1450,88
783,64	1472,49
783,82	1473,82
784,00	1469,01
784,18	1456,00
784,35	1443,20
784,53	1460,00
784,71	1431,73
784,89	1452,11
785,07	1437,16
785,25	1463,89
785,43	1446,48
785,61	1431,84
785,79	1442,28
785,96	1464,91
786,14	1430,51
786,32	1451,91
786,50	1446,58
786,68	1412,48
786,86	1410,85
787,04	1439,11
787,22	1413,41
787,39	1436,96
787,57	1416,17
787,75	1445,46
787,93	1451,60
788,11	1430,10
788,29	1420,88
788,47	1444,13
788,65	1415,45
788,82	1421,70
789,00	1419,14
789,18	1437,47
789,36	1419,96
789,54	1409,31
789,72	1407,26
789,89	1413,10
790,07	1427,95
790,25	1432,14
790,43	1424,06
790,61	1434,70
790,79	1402,14
790,96	1417,50
791,14	1436,75
791,32	1374,80
791,50	1406,34
791,68	1415,97
791,86	1402,55
792,03	1401,32
792,21	1389,55
792,39	1390,57
792,57	1384,22
792,75	1377,36
792,93	1415,97
793,10	1397,84
793,28	1393,85
793,46	1371,83
793,64	1406,03
793,82	1416,07
793,99	1410,13
794,17	1362,62
794,35	1398,66
794,53	1387,60
794,71	1366,20
794,88	1385,76
795,06	1381,97
795,24	1370,91
795,42	1397,74
795,60	1397,33
795,77	1369,27
795,95	1397,02
796,13	1390,06
796,31	1390,88
796,49	1410,13
796,66	1375,01
796,84	1376,54
797,02	1383,40
797,20	1384,94
797,37	1384,22
797,55	1347,67
797,73	1361,08
797,91	1365,69
798,08	1396,10
798,26	1396,20
798,44	1369,37
798,62	1358,93
798,80	1375,21
798,97	1364,05
799,15	1372,55
799,33	1382,89
799,51	1403,37
799,68	1372,45
799,86	1372,65
800,04	1366,61
800,22	1378,90
800,39	1360,98
800,57	1401,73
800,75	1368,04
800,93	1371,12
801,10	1378,59
801,28	1391,90
801,46	1359,85
801,63	1379,51
801,81	1363,84
801,99	1363,54
802,17	1371,93
802,34	1379,51
802,52	1333,23
802,70	1393,13
802,88	1372,75
803,05	1380,84
803,23	1344,90
803,41	1344,18
803,58	1364,87
803,76	1358,32
803,94	1375,62
804,12	1368,25
804,29	1351,15
804,47	1384,94
804,65	1353,71
804,82	1357,70
805,00	1351,86
805,18	1346,64
805,35	1341,42
805,53	1354,12
805,71	1354,63
805,89	1359,65
806,06	1359,24
806,24	1344,80
806,42	1337,43
806,59	1340,19
806,77	1361,59
806,95	1356,78
807,12	1349,41
807,30	1354,83
807,48	1328,93
807,65	1322,17
807,83	1355,96
808,01	1347,87
808,18	1359,34
808,36	1340,19
808,54	1333,84
808,71	1338,45
808,89	1351,76
809,07	1342,96
809,24	1370,30
809,42	1374,90
809,60	1307,01
809,77	1345,72
809,95	1366,10
810,13	1333,23
810,30	1336,50
810,48	1381,05
810,66	1324,63
810,83	1352,99
811,01	1317,66
811,18	1334,87
811,36	1315,31
811,54	1351,45
811,71	1348,59
811,89	1349,51
812,07	1328,01
812,24	1362,41
812,42	1314,18
812,59	1333,43
812,77	1328,82
812,95	1349,41
813,12	1315,31
813,30	1335,07
813,48	1329,23
813,65	1338,25
813,83	1367,74
814,00	1347,56
814,18	1354,22
814,36	1328,82
814,53	1337,53
814,71	1349,10
814,88	1357,29
815,06	1330,26
815,24	1364,87
815,41	1326,06
815,59	1340,40
815,76	1312,95
815,94	1354,22
816,12	1332,82
816,29	1347,56
816,47	1327,08
816,64	1356,16
816,82	1315,41
817,00	1341,11
817,17	1321,45
817,35	1357,91
817,52	1327,19
817,70	1334,87
817,87	1343,06
818,05	1333,53
818,23	1327,70
818,40	1355,24
818,58	1340,29
818,75	1316,84
818,93	1326,37
819,10	1319,71
819,28	1332,31
819,46	1332,00
819,63	1319,71
819,81	1342,65
819,98	1303,12
820,16	1337,02
820,33	1317,56
820,51	1343,88
820,68	1335,99
820,86	1324,01
821,03	1352,58
821,21	1334,87
821,39	1355,04
821,56	1322,58
821,74	1305,89
821,91	1304,35
822,09	1311,11
822,26	1318,58
822,44	1318,89
822,61	1287,97
822,79	1348,38
822,96	1321,66
823,14	1310,39
823,31	1301,28
823,49	1349,82
823,66	1340,81
823,84	1324,93
824,01	1303,94
824,19	1292,88
824,36	1320,33
824,54	1333,23
824,71	1333,74
824,89	1333,94
825,06	1337,73
825,24	1318,07
825,41	1321,25
825,59	1315,51
825,76	1317,77
825,94	1314,90
826,11	1326,88
826,29	1312,54
826,46	1309,06
826,64	1328,62
826,81	1324,52
826,99	1317,05
827,16	1294,93
827,34	1295,34
827,51	1311,42
827,69	1358,93
827,86	1319,30
828,04	1315,72
828,21	1314,39
828,39	1326,98
828,56	1310,19
828,74	1335,28
828,91	1307,12
829,09	1351,45
829,26	1304,86
829,43	1349,10
829,61	1305,78
829,78	1303,94
829,96	1320,53
830,13	1308,45
830,31	1329,75
830,48	1330,77
830,66	1303,02
830,83	1312,95
831,01	1304,56
831,18	1303,22
831,35	1316,84
831,53	1318,07
831,70	1323,81
831,88	1335,17
832,05	1311,21
832,23	1299,54
832,40	1321,55
832,57	1326,16
832,75	1308,55
832,92	1322,99
833,10	1317,36
833,27	1327,39
833,45	1323,91
833,62	1326,16
833,79	1323,19
833,97	1305,17
834,14	1287,25
834,32	1329,95
834,49	1286,53
834,66	1328,52
834,84	1297,90
835,01	1321,66
835,19	1286,33
835,36	1303,33
835,53	1322,99
835,71	1309,68
835,88	1302,82
836,06	1325,14
836,23	1346,74
836,40	1304,97
836,58	1289,30
836,75	1323,09
836,93	1304,15
837,10	1308,75
837,27	1302,61
837,45	1322,48
837,62	1292,27
837,79	1295,85
837,97	1316,95
838,14	1298,21
838,32	1302,51
838,49	1303,84
838,66	1313,26
838,84	1310,09
839,01	1324,01
839,18	1314,08
839,36	1289,40
839,53	1290,12
839,70	1318,99
839,88	1322,48
840,05	1316,74
840,23	1315,82
840,40	1309,16
840,57	1308,14
840,75	1306,40
840,92	1335,58
841,09	1305,89
841,27	1319,40
841,44	1300,77
841,61	1308,45
841,79	1301,28
841,96	1294,21
842,13	1263,60
842,31	1293,70
842,48	1308,86
842,65	1293,70
842,83	1309,98
843,00	1315,10
843,17	1292,06
843,35	1308,45
843,52	1298,62
843,69	1311,62
843,86	1289,30
844,04	1289,81
844,21	1305,99
844,38	1313,46
844,56	1298,31
844,73	1310,80
844,90	1307,53
845,08	1308,45
845,25	1301,38
845,42	1320,63
845,60	1306,60
845,77	1306,19
845,94	1294,42
846,11	1303,12
846,29	1316,13
846,46	1300,46
846,63	1304,25
846,81	1338,65
846,98	1289,20
847,15	1298,10
847,32	1299,03
847,50	1303,63
847,67	1306,81
847,84	1300,26
848,01	1311,62
848,19	1309,37
848,36	1299,54
848,53	1298,72
848,71	1306,50
848,88	1298,21
849,05	1284,90
849,22	1302,20
849,40	1289,09
849,57	1322,37
849,74	1287,35
849,91	1306,60
850,09	1303,43
850,26	1296,57
850,43	1289,30
850,60	1299,74
850,78	1301,89
850,95	1308,04
851,12	1297,90
851,29	1304,45
851,47	1320,74
851,64	1304,66
851,81	1278,75
851,98	1288,48
852,15	1338,65
852,33	1274,55
852,50	1290,43
852,67	1311,42
852,84	1290,73
853,02	1317,15
853,19	1309,88
853,36	1308,24
853,53	1273,94
853,70	1321,76
853,88	1309,68
854,05	1319,92
854,22	1290,43
854,39	1306,60
854,56	1298,10
854,74	1280,49
854,91	1315,51
855,08	1271,89
855,25	1309,78
855,42	1289,61
855,60	1313,16
855,77	1303,84
855,94	1328,11
856,11	1301,59
856,28	1304,15
856,46	1309,57
856,63	1296,47
856,80	1294,73
856,97	1311,42
857,14	1310,60
857,31	1290,43
857,49	1302,41
857,66	1308,04
857,83	1287,46
858,00	1294,11
858,17	1306,91
858,34	1298,82
858,52	1285,71
858,69	1291,04
858,86	1311,11
859,03	1299,85
859,20	1323,91
859,37	1298,21
859,55	1278,85
859,72	1308,55
859,89	1291,45
860,06	1312,44
860,23	1315,21
860,40	1265,13
860,57	1320,02
860,75	1278,34
860,92	1335,58
861,09	1306,91
861,26	1305,27
861,43	1300,77
861,60	1303,43
861,77	1275,37
861,95	1290,53
862,12	1295,65
862,29	1297,29
862,46	1307,22
862,63	1316,74
862,80	1310,19
862,97	1325,24
863,14	1274,66
863,31	1316,54
863,49	1315,51
863,66	1309,27
863,83	1306,40
864,00	1329,75
864,17	1297,49
864,34	1304,45
864,51	1287,97
864,68	1298,41
864,85	1256,63
865,02	1281,21
865,20	1303,94
865,37	1297,49
865,54	1284,59
865,71	1311,21
865,88	1283,77
866,05	1301,89
866,22	1297,39
866,39	1295,44
866,56	1274,04
866,73	1300,46
866,90	1319,81
867,07	1302,20
867,25	1283,05
867,42	1316,95
867,59	1287,46
867,76	1302,51
867,93	1277,83
868,10	1306,50
868,27	1281,72
868,44	1295,34
868,61	1297,39
868,78	1316,13
868,95	1279,57
869,12	1305,89
869,29	1301,69
869,46	1312,13
869,63	1300,87
869,80	1272,71
869,97	1300,05
870,14	1324,01
870,32	1290,73
870,49	1294,32
870,66	1309,78
870,83	1291,14
871,00	1290,32
871,17	1289,61
871,34	1285,00
871,51	1303,02
871,68	1280,29
871,85	1306,91
872,02	1322,17
872,19	1300,66
872,36	1285,00
872,53	1300,66
872,70	1287,25
872,87	1279,88
873,04	1271,07
873,21	1278,96
873,38	1302,20
873,55	1317,56
873,72	1302,00
873,89	1297,59
874,06	1278,24
874,23	1280,19
874,40	1292,88
874,57	1276,70
874,74	1314,59
874,91	1303,94
875,08	1282,95
875,25	1306,50
875,42	1317,25
875,59	1290,73
875,76	1290,94
875,93	1298,00
876,10	1323,81
876,27	1288,17
876,44	1316,33
876,61	1290,02
876,78	1289,40
876,95	1305,58
877,12	1287,15
877,29	1292,06
877,46	1286,23
877,62	1293,09
877,79	1273,53
877,96	1296,88
878,13	1284,08
878,30	1299,44
878,47	1310,90
878,64	1310,39
878,81	1277,93
878,98	1302,41
879,15	1296,26
879,32	1315,51
879,49	1304,66
879,66	1321,76
879,83	1282,44
880,00	1330,26
880,17	1274,45
880,34	1317,66
880,51	1284,69
880,67	1322,07
880,84	1258,68
881,01	1305,17
881,18	1322,27
881,35	1289,91
881,52	1322,27
881,69	1288,27
881,86	1315,82
882,03	1301,89
882,20	1305,78
882,37	1297,39
882,54	1286,74
882,70	1303,53
882,87	1277,42
883,04	1304,15
883,21	1288,07
883,38	1279,67
883,55	1282,13
883,72	1289,20
883,89	1296,67
884,06	1282,75
884,23	1263,29
884,39	1275,68
884,56	1302,92
884,73	1314,80
884,90	1278,55
885,07	1317,25
885,24	1290,63
885,41	1323,19
885,58	1295,44
885,74	1280,19
885,91	1300,77
886,08	1301,07
886,25	1276,19
886,42	1290,53
886,59	1297,90
886,76	1268,82
886,93	1265,13
887,09	1321,14
887,26	1343,26
887,43	1293,39
887,60	1296,67
887,77	1301,59
887,94	1297,18
888,10	1333,13
888,27	1305,27
888,44	1299,03
888,61	1277,83
888,78	1278,34
888,95	1295,65
889,12	1289,91
889,28	1295,75
889,45	1294,52
889,62	1287,56
889,79	1293,29
889,96	1301,89
890,13	1291,35
890,29	1281,41
890,46	1335,69
890,63	1310,29
890,80	1287,05
890,97	1278,24
891,13	1272,40
891,30	1299,64
891,47	1317,56
891,64	1282,95
891,81	1278,96
891,98	1301,59
892,14	1300,56
892,31	1279,57
892,48	1285,71
892,65	1277,32
892,82	1288,48
892,98	1266,57
893,15	1302,71
893,32	1287,25
>>>>>End Processed Spectral Data<<<<<
