SpectraSuite Datei
++++++++++++++++++++++++++++++++++++
Datum: Mon Mar 09 11:56:31 CET 2020
Benutzer: Lichtquellen1
Dark-Spektrum vorhanden: Nein
Referenz-Spektrum vorhanden: Nein
Zahl der probierten Teilspektren: 1
Spektrometer: USB4F05832
Integrationszeit (usec): 200000 (USB4F05832)
Spektren Durchschnitt berechnet: 5 (USB4F05832)
Boxcar Glättung: 0 (USB4F05832)
Dunkelstromkorrektur: Nein (USB4F05832)
Puls/Lampe aktiviert: Nein (USB4F05832)
Correct for Detector Non-linearity: Nein (USB4F05832)
Streulichtkorrektur: Nein (USB4F05832)
Anzahl Pixel in verarbeitetem Spektrum: 3648
>>>>>Begin Processed Spectral Data<<<<<
177,54	1386,07
177,75	1386,07
177,97	1386,07
178,19	1379,92
178,41	1356,57
178,63	1751,42
178,85	1498,29
179,07	1653,12
179,29	1668,28
179,51	1505,26
179,73	1709,64
179,95	1646,16
180,17	1633,46
180,39	1811,22
180,61	1730,53
180,83	1788,29
181,05	1566,29
181,27	1660,08
181,49	1637,15
181,71	1672,37
181,92	1896,01
182,14	1738,32
182,36	1617,08
182,58	1761,25
182,80	1655,17
183,02	1868,57
183,24	1810,81
183,46	1699,40
183,68	1667,05
183,90	1747,74
184,12	1610,52
184,34	1771,49
184,56	1651,07
184,78	1623,63
185,00	1680,56
185,21	1791,97
185,43	1618,71
185,65	1748,56
185,87	1668,28
186,09	1841,53
186,31	1674,42
186,53	1721,11
186,75	1726,03
186,97	1780,91
187,19	1835,39
187,41	1615,85
187,63	1828,84
187,84	1611,34
188,06	1744,05
188,28	1659,67
188,50	1747,33
188,72	1834,16
188,94	1762,48
189,16	1639,60
189,38	1677,29
189,60	1731,76
189,82	1670,32
190,03	1762,07
190,25	1686,30
190,47	1763,71
190,69	1701,04
190,91	1589,63
191,13	1704,73
191,35	1807,54
191,57	1652,71
191,79	1714,15
192,01	1702,27
192,22	1810,81
192,44	1685,89
192,66	1684,25
192,88	1725,62
193,10	1696,95
193,32	1674,42
193,54	1875,53
193,76	1827,20
193,98	1700,63
194,19	1799,35
194,41	1698,99
194,63	1632,23
194,85	1687,12
195,07	1834,57
195,29	1580,21
195,51	1794,02
195,73	1646,98
195,94	1687,12
196,16	1687,53
196,38	1914,85
196,60	1647,39
196,82	1606,84
197,04	1647,39
197,26	1658,04
197,48	1642,88
197,69	1684,66
197,91	1601,92
198,13	1649,84
198,35	1708,42
198,57	1661,31
198,79	1809,18
199,01	1769,04
199,22	1722,75
199,44	1783,78
199,66	1692,44
199,88	1719,06
200,10	1796,07
200,32	1726,03
200,54	1737,09
200,75	1873,48
200,97	1643,29
201,19	1772,72
201,41	1780,50
201,63	1682,20
201,85	1662,54
202,06	1822,28
202,28	1689,57
202,50	1742,00
202,72	1568,33
202,94	1611,75
203,16	1671,96
203,38	1677,70
203,59	1692,85
203,81	1790,33
204,03	1605,20
204,25	1699,81
204,47	1818,60
204,69	1733,40
204,90	1660,90
205,12	1711,28
205,34	1739,14
205,56	1711,69
205,78	1649,84
206,00	1887,41
206,21	1794,84
206,43	1674,83
206,65	1730,53
206,87	1649,84
207,09	1728,08
207,30	1639,19
207,52	1736,27
207,74	1774,77
207,96	1652,71
208,18	1671,55
208,40	1671,55
208,61	1703,91
208,83	1723,16
209,05	1613,80
209,27	1583,49
209,49	1779,28
209,70	1767,81
209,92	1730,12
210,14	1625,27
210,36	1663,36
210,58	1711,69
210,79	1768,22
211,01	1578,16
211,23	1764,94
211,45	1800,98
211,67	1735,45
211,88	1621,17
212,10	1774,77
212,32	1611,75
212,54	1676,06
212,76	1693,26
212,97	1615,85
213,19	1576,12
213,41	1797,71
213,63	1618,71
213,85	1708,42
214,06	1599,05
214,28	1856,28
214,50	1674,01
214,72	1739,95
214,94	1717,02
215,15	1663,36
215,37	1665,82
215,59	1630,18
215,81	1812,86
216,02	1701,04
216,24	1750,19
216,46	1606,84
216,68	1687,53
216,90	1677,70
217,11	1792,79
217,33	1652,71
217,55	1814,50
217,77	1720,29
217,98	1821,87
218,20	1770,67
218,42	1793,20
218,64	1723,16
218,85	1835,80
219,07	1716,20
219,29	1698,59
219,51	1767,81
219,73	1708,83
219,94	1652,30
220,16	1853,41
220,38	1732,58
220,60	1675,24
220,81	1575,71
221,03	1602,33
221,25	1798,53
221,47	1571,20
221,68	1681,38
221,90	1714,56
222,12	1689,57
222,34	1712,10
222,55	1769,85
222,77	1839,08
222,99	1687,53
223,21	1743,23
223,42	1800,57
223,64	1752,65
223,86	1666,64
224,08	1716,20
224,29	1822,69
224,51	1739,54
224,73	1722,75
224,94	1723,57
225,16	1650,25
225,38	1685,07
225,60	1763,30
225,81	1655,58
226,03	1676,06
226,25	1588,40
226,47	1760,84
226,68	1743,64
226,90	1714,97
227,12	1718,25
227,33	1752,24
227,55	1670,73
227,77	1611,75
227,99	1840,71
228,20	1711,69
228,42	1750,19
228,64	1730,53
228,86	1680,97
229,07	1679,33
229,29	1624,45
229,51	1501,98
229,72	1850,13
229,94	1719,47
230,16	1780,50
230,38	1651,89
230,59	1677,29
230,81	1842,35
231,03	1751,83
231,24	1688,35
231,46	1694,08
231,68	1649,02
231,89	1679,74
232,11	1631,82
232,33	1850,13
232,55	1717,43
232,76	1760,43
232,98	1710,46
233,20	1638,38
233,41	1601,92
233,63	1665,82
233,85	1675,24
234,06	1671,55
234,28	1727,67
234,50	1648,21
234,71	1749,78
234,93	1827,61
235,15	1714,56
235,37	1571,61
235,58	1717,02
235,80	1621,99
236,02	1634,28
236,23	1749,78
236,45	1642,47
236,67	1785,42
236,88	1687,12
237,10	1785,42
237,32	1800,16
237,53	1741,18
237,75	1718,66
237,97	1597,01
238,18	1683,02
238,40	1748,56
238,62	1649,02
238,83	1701,86
239,05	1680,56
239,27	1712,51
239,48	1628,54
239,70	1695,31
239,92	1823,10
240,13	1774,36
240,35	1661,72
240,57	1748,15
240,78	1732,99
241,00	1625,27
241,22	1689,16
241,43	1850,13
241,65	1683,02
241,87	1852,18
242,08	1935,33
242,30	1658,85
242,52	1696,13
242,73	1795,25
242,95	1610,11
243,16	1715,79
243,38	1821,87
243,60	1710,46
243,81	1749,37
244,03	1783,78
244,25	1628,95
244,46	1683,84
244,68	1631,00
244,90	1745,28
245,11	1600,69
245,33	1683,43
245,55	1743,64
245,76	1692,03
245,98	1652,71
246,19	1845,63
246,41	1842,35
246,63	1789,52
246,84	1820,64
247,06	1734,22
247,28	1760,84
247,49	1734,63
247,71	1615,44
247,92	1766,99
248,14	1793,20
248,36	1750,19
248,57	1797,30
248,79	1806,31
249,01	1701,86
249,22	1739,95
249,44	1768,63
249,65	1689,98
249,87	1760,84
250,09	1778,05
250,30	1749,78
250,52	1737,50
250,73	1804,67
250,95	1626,09
251,17	1737,09
251,38	1698,18
251,60	1637,97
251,81	1837,44
252,03	1831,70
252,25	1595,78
252,46	1658,04
252,68	1807,54
252,89	1737,09
253,11	1745,69
253,33	1737,91
253,54	1576,94
253,76	1764,12
253,97	1801,39
254,19	1742,82
254,41	1645,34
254,62	1795,25
254,84	1761,66
255,05	1760,02
255,27	1766,58
255,49	1843,58
255,70	1779,68
255,92	1630,18
256,13	1674,83
256,35	1793,61
256,56	1800,98
256,78	1760,43
257,00	1775,18
257,21	1694,08
257,43	1648,21
257,64	1714,97
257,86	1805,49
258,08	1721,52
258,29	1855,05
258,51	1672,37
258,72	1787,88
258,94	1821,05
259,15	1742,82
259,37	1731,76
259,59	1603,15
259,80	1732,17
260,02	1668,68
260,23	1703,09
260,45	1638,78
260,66	1713,74
260,88	1720,70
261,09	1676,47
261,31	1686,30
261,53	1803,44
261,74	1817,78
261,96	1551,13
262,17	1644,52
262,39	1737,50
262,60	1730,12
262,82	1712,51
263,03	1681,38
263,25	1793,20
263,46	1671,14
263,68	1772,31
263,90	1712,51
264,11	1644,93
264,33	1861,60
264,54	1786,24
264,76	1719,47
264,97	1825,97
265,19	1637,97
265,40	1797,30
265,62	1662,95
265,83	1785,83
266,05	1753,47
266,26	1677,29
266,48	1889,46
266,70	1819,42
266,91	1603,15
267,13	1739,14
267,34	1653,94
267,56	1764,53
267,77	1715,79
267,99	1703,91
268,20	1862,83
268,42	1739,95
268,63	1584,72
268,85	1954,99
269,06	1808,77
269,28	1765,35
269,49	1745,69
269,71	1779,68
269,92	1687,94
270,14	1637,97
270,35	1723,16
270,57	1755,93
270,78	1715,38
271,00	1726,03
271,21	1941,06
271,43	1648,61
271,64	1685,07
271,86	1819,01
272,07	1615,44
272,29	1892,73
272,50	1677,70
272,72	1812,45
272,93	1814,09
273,15	1831,29
273,36	1797,71
273,58	1717,43
273,79	1743,64
274,01	1724,39
274,22	1676,06
274,44	1717,43
274,65	1764,12
274,87	1776,41
275,08	1740,36
275,30	1774,36
275,51	1951,71
275,73	1880,04
275,94	1689,16
276,16	1693,67
276,37	1699,40
276,59	1703,50
276,80	1718,25
277,02	1740,77
277,23	1699,81
277,45	1777,23
277,66	1557,69
277,88	1775,18
278,09	1889,46
278,30	1804,67
278,52	1655,17
278,73	1921,40
278,95	1748,56
279,16	1851,36
279,38	1742,82
279,59	1724,39
279,81	1670,32
280,02	1720,70
280,24	1658,85
280,45	1718,25
280,67	1867,75
280,88	1843,17
281,09	1624,45
281,31	1669,09
281,52	1704,73
281,74	1914,44
281,95	1776,82
282,17	1708,42
282,38	1806,72
282,60	1727,67
282,81	1815,32
283,02	1683,84
283,24	1665,00
283,45	1839,90
283,67	1654,76
283,88	1790,74
284,10	1710,87
284,31	1773,54
284,53	1716,61
284,74	1715,38
284,95	1725,21
285,17	1742,82
285,38	1653,12
285,60	1694,08
285,81	1699,40
286,03	1745,69
286,24	1802,21
286,45	1855,05
286,67	1753,06
286,88	1756,75
287,10	1769,85
287,31	1577,35
287,53	1744,46
287,74	1799,35
287,95	1640,42
288,17	1779,68
288,38	1761,25
288,60	1655,58
288,81	1680,97
289,02	1708,83
289,24	1863,65
289,45	1711,69
289,67	1773,95
289,88	1732,17
290,10	1760,84
290,31	1763,71
290,52	1719,47
290,74	1732,58
290,95	1815,32
291,17	1785,83
291,38	1667,05
291,59	1678,52
291,81	1656,40
292,02	1723,57
292,24	1776,00
292,45	1745,69
292,66	1758,80
292,88	1843,17
293,09	1763,30
293,31	1753,88
293,52	1692,85
293,73	1659,67
293,95	1768,22
294,16	1799,35
294,37	1775,59
294,59	1816,55
294,80	1862,83
295,02	1700,63
295,23	1626,09
295,44	1804,26
295,66	1677,29
295,87	1796,48
296,09	1659,26
296,30	1757,16
296,51	1694,49
296,73	1674,01
296,94	1662,54
297,15	1676,47
297,37	1672,78
297,58	1665,00
297,79	1744,05
298,01	1739,14
298,22	1814,91
298,44	1612,57
298,65	1715,38
298,86	1813,68
299,08	1644,11
299,29	1744,05
299,50	1659,26
299,72	1678,92
299,93	1751,83
300,14	1825,56
300,36	1610,52
300,57	1628,14
300,79	1712,92
301,00	1818,19
301,21	1565,47
301,43	1695,72
301,64	1731,76
301,85	1665,41
302,07	1810,81
302,28	1679,74
302,49	1877,99
302,71	1732,17
302,92	1800,57
303,13	1833,34
303,35	1705,55
303,56	1774,77
303,77	1608,88
303,99	1712,92
304,20	1743,23
304,41	1650,25
304,63	1668,68
304,84	1791,97
305,05	1769,45
305,27	1812,04
305,48	1792,38
305,69	1698,99
305,91	1787,88
306,12	1711,28
306,33	1761,66
306,55	1730,53
306,76	1670,73
306,97	1684,25
307,19	1717,43
307,40	1809,18
307,61	1822,69
307,82	1701,86
308,04	1820,64
308,25	1766,58
308,46	1787,88
308,68	1743,64
308,89	1839,90
309,10	1739,54
309,32	1716,61
309,53	1670,32
309,74	1790,33
309,96	1674,83
310,17	1676,06
310,38	1655,58
310,59	1773,54
310,81	1734,22
311,02	1735,04
311,23	1750,60
311,45	1706,78
311,66	1701,45
311,87	1704,32
312,09	1784,60
312,30	1739,14
312,51	1792,38
312,72	1760,43
312,94	1789,11
313,15	1713,74
313,36	1798,53
313,58	1669,91
313,79	1872,25
314,00	1743,64
314,21	1644,93
314,43	1785,01
314,64	1698,99
314,85	1669,09
315,06	1664,59
315,28	1839,90
315,49	1782,55
315,70	1747,33
315,92	1856,28
316,13	1938,61
316,34	1779,68
316,55	1810,81
316,77	1661,31
316,98	1862,42
317,19	1711,28
317,40	1593,32
317,62	1588,40
317,83	1878,81
318,04	1696,95
318,25	1703,91
318,47	1690,39
318,68	1720,29
318,89	1801,39
319,11	1714,56
319,32	1739,54
319,53	1819,42
319,74	1784,60
319,96	1812,86
320,17	1705,55
320,38	1606,02
320,59	1834,16
320,81	1744,05
321,02	1745,28
321,23	1714,56
321,44	1791,97
321,65	1711,28
321,87	1741,18
322,08	1850,54
322,29	1744,46
322,50	1667,87
322,72	1736,27
322,93	1749,78
323,14	1677,70
323,35	1703,09
323,57	1798,94
323,78	1772,72
323,99	1739,14
324,20	1855,05
324,41	1658,45
324,63	1795,66
324,84	1722,75
325,05	1742,41
325,26	1795,25
325,48	1746,51
325,69	1749,37
325,90	1734,63
326,11	1720,29
326,32	1737,50
326,54	1755,93
326,75	1713,33
326,96	1706,78
327,17	1771,90
327,39	1828,43
327,60	1739,95
327,81	1727,26
328,02	1703,91
328,23	1727,67
328,45	1781,32
328,66	1703,91
328,87	1719,88
329,08	1824,33
329,29	1748,15
329,51	1687,53
329,72	1680,56
329,93	1783,78
330,14	1693,26
330,35	1704,32
330,56	1671,55
330,78	1752,24
330,99	1769,04
331,20	1769,04
331,41	1847,68
331,62	1689,98
331,84	1716,20
332,05	1688,35
332,26	1772,72
332,47	1788,70
332,68	1660,90
332,90	1707,60
333,11	1645,75
333,32	1914,44
333,53	1795,66
333,74	1591,27
333,95	1797,30
334,17	1775,59
334,38	1716,61
334,59	1682,20
334,80	1692,03
335,01	1830,06
335,22	1738,73
335,44	1738,32
335,65	1671,96
335,86	1799,75
336,07	1690,80
336,28	1682,61
336,49	1689,98
336,71	1618,30
336,92	1843,17
337,13	1699,81
337,34	1653,94
337,55	1916,08
337,76	1733,81
337,97	1787,06
338,19	1761,25
338,40	1665,00
338,61	1793,61
338,82	1740,77
339,03	1750,19
339,24	1655,17
339,45	1671,14
339,67	1770,67
339,88	1774,36
340,09	1769,45
340,30	1665,41
340,51	1871,84
340,72	1726,44
340,93	1594,14
341,15	1763,71
341,36	1836,62
341,57	1671,96
341,78	1664,59
341,99	1766,17
342,20	1807,13
342,41	1690,80
342,62	1889,05
342,84	1612,57
343,05	1847,27
343,26	1656,81
343,47	1798,12
343,68	1584,72
343,89	1756,34
344,10	1748,97
344,31	1742,82
344,53	1609,29
344,74	1715,79
344,95	1701,86
345,16	1725,21
345,37	1776,00
345,58	1740,36
345,79	1639,60
346,00	1625,68
346,21	1618,30
346,42	1670,73
346,64	1696,13
346,85	1805,90
347,06	1769,44
347,27	1650,66
347,48	1858,74
347,69	1768,63
347,90	1770,26
348,11	1806,31
348,32	1655,58
348,53	1726,03
348,75	1634,28
348,96	1712,92
349,17	1661,31
349,38	1723,57
349,59	1728,49
349,80	1611,34
350,01	1891,50
350,22	1832,11
350,43	1695,72
350,64	1784,60
350,85	1847,68
351,06	1655,58
351,28	1698,18
351,49	1629,36
351,70	1762,07
351,91	1608,07
352,12	1693,67
352,33	1745,69
352,54	1609,29
352,75	1643,70
352,96	1683,02
353,17	1739,14
353,38	1769,85
353,59	1826,79
353,80	1875,53
354,01	1791,15
354,22	1692,85
354,44	1651,48
354,65	1814,09
354,86	1704,32
355,07	1616,26
355,28	1594,96
355,49	1666,23
355,70	1637,56
355,91	1779,28
356,12	1621,58
356,33	1638,78
356,54	1755,93
356,75	1748,97
356,96	1715,79
357,17	1811,22
357,38	1674,83
357,59	1715,38
357,80	1829,66
358,01	1728,90
358,22	1821,87
358,43	1726,44
358,64	1741,59
358,85	1621,17
359,07	1839,90
359,28	1663,77
359,49	1759,61
359,70	1621,58
359,91	1732,17
360,12	1652,71
360,33	1775,18
360,54	1679,33
360,75	1653,53
360,96	1633,46
361,17	1563,01
361,38	1665,82
361,59	1850,95
361,80	1616,26
362,01	1770,67
362,22	1720,29
362,43	1662,95
362,64	1742,00
362,85	1723,98
363,06	1899,29
363,27	1785,01
363,48	1840,71
363,69	1882,90
363,90	1639,19
364,11	1750,19
364,32	1649,02
364,53	1767,81
364,74	1737,50
364,95	1785,42
365,16	1722,75
365,37	1857,10
365,58	1677,70
365,79	1687,53
366,00	1755,11
366,21	1650,25
366,42	1788,29
366,63	1825,56
366,84	1678,11
367,05	1752,24
367,26	1785,83
367,47	1871,84
367,68	1710,05
367,89	1742,00
368,10	1757,57
368,31	1660,90
368,52	1781,73
368,73	1751,01
368,94	1675,24
369,15	1718,25
369,36	1657,63
369,57	1692,44
369,78	1673,60
369,99	1676,06
370,20	1763,30
370,40	1588,40
370,61	1594,14
370,82	1716,61
371,03	1745,28
371,24	1727,67
371,45	1705,14
371,66	1525,33
371,87	1723,98
372,08	1737,91
372,29	1719,47
372,50	1765,35
372,71	1694,08
372,92	1774,36
373,13	1661,31
373,34	1670,32
373,55	1663,77
373,76	1818,19
373,97	1745,28
374,18	1712,51
374,39	1671,55
374,60	1870,21
374,81	1700,22
375,01	1631,00
375,22	1729,71
375,43	1635,51
375,64	1631,41
375,85	1625,27
376,06	1653,12
376,27	1700,22
376,48	1735,86
376,69	1777,64
376,90	1724,80
377,11	1783,37
377,32	1723,16
377,53	1719,88
377,74	1689,16
377,94	1638,78
378,15	1734,22
378,36	1794,84
378,57	1584,31
378,78	1864,88
378,99	1606,02
379,20	1903,79
379,41	1739,95
379,62	1671,96
379,83	1574,07
380,04	1753,88
380,25	1699,40
380,45	1732,99
380,66	1779,68
380,87	1681,38
381,08	1763,30
381,29	1674,42
381,50	1771,49
381,71	1721,11
381,92	1663,36
382,13	1599,87
382,34	1755,93
382,55	1697,77
382,75	1762,89
382,96	1778,87
383,17	1588,81
383,38	1833,75
383,59	1813,68
383,80	1630,18
384,01	1684,25
384,22	1820,64
384,43	1774,77
384,63	1724,39
384,84	1700,22
385,05	1783,37
385,26	1728,90
385,47	1711,28
385,68	1642,47
385,89	1782,96
386,10	1648,61
386,30	1736,68
386,51	1612,57
386,72	1668,68
386,93	1583,08
387,14	1762,89
387,35	1751,01
387,56	1850,95
387,77	1664,18
387,97	1676,47
388,18	1662,13
388,39	1708,83
388,60	1699,81
388,81	1775,18
389,02	1779,28
389,23	1687,12
389,43	1663,36
389,64	1706,37
389,85	1678,52
390,06	1817,78
390,27	1638,38
390,48	1818,60
390,69	1668,68
390,89	1681,79
391,10	1673,60
391,31	1663,77
391,52	1723,16
391,73	1725,62
391,94	1698,99
392,14	1629,77
392,35	1634,28
392,56	1641,65
392,77	1725,21
392,98	1712,10
393,19	1754,70
393,39	1819,42
393,60	1698,99
393,81	1800,16
394,02	1820,64
394,23	1613,39
394,44	1597,83
394,64	1724,39
394,85	1709,64
395,06	1759,61
395,27	1729,30
395,48	1762,48
395,69	1785,42
395,89	1686,71
396,10	1691,21
396,31	1883,31
396,52	1590,86
396,73	1742,00
396,93	1665,00
397,14	1803,85
397,35	1830,06
397,56	1788,70
397,77	1683,84
397,97	1670,73
398,18	1744,46
398,39	1719,47
398,60	1747,74
398,81	1668,28
399,01	1640,83
399,22	1734,63
399,43	1793,61
399,64	1862,83
399,85	1775,59
400,05	1629,77
400,26	1596,19
400,47	1665,41
400,68	1611,34
400,89	1932,87
401,09	1658,85
401,30	1684,66
401,51	1764,53
401,72	1687,12
401,93	1924,68
402,13	1719,88
402,34	1812,86
402,55	1746,92
402,76	1696,13
402,96	1724,80
403,17	1723,98
403,38	1828,43
403,59	1791,15
403,80	1772,72
404,00	1781,73
404,21	1743,64
404,42	1677,70
404,63	1651,89
404,83	1697,36
405,04	1773,54
405,25	1794,02
405,46	1835,39
405,66	1692,85
405,87	1743,64
406,08	1676,88
406,29	1862,01
406,49	1668,68
406,70	1831,29
406,91	1600,69
407,12	1704,73
407,32	1875,94
407,53	1774,77
407,74	1772,31
407,95	1855,87
408,15	1730,12
408,36	1655,99
408,57	1790,74
408,78	1773,54
408,98	1829,66
409,19	1840,30
409,40	1741,18
409,61	1742,41
409,81	1795,25
410,02	1708,42
410,23	1769,04
410,44	1818,60
410,64	1668,68
410,85	1786,24
411,06	1761,66
411,26	1861,19
411,47	1822,69
411,68	1924,27
411,89	1776,00
412,09	1769,85
412,30	1835,39
412,51	1816,96
412,72	1798,12
412,92	1814,91
413,13	1824,74
413,34	1786,65
413,54	1824,74
413,75	1904,61
413,96	1874,30
414,17	1806,31
414,37	1894,78
414,58	1998,41
414,79	1893,96
414,99	1991,04
415,20	1943,93
415,41	1825,56
415,61	1923,45
415,82	1945,57
416,03	1972,19
416,24	1902,97
416,44	1942,29
416,65	2004,96
416,86	2044,69
417,06	1871,84
417,27	1960,73
417,48	2031,99
417,68	1941,06
417,89	2090,98
418,10	2012,74
418,30	2111,05
418,51	2165,93
418,72	2078,28
418,92	2084,42
419,13	2109,41
419,34	2062,30
419,55	2203,20
419,75	3051,47
419,96	2168,39
420,17	2339,19
420,37	2174,12
420,58	2297,00
420,79	2161,84
420,99	2281,44
421,20	2379,33
421,41	2314,20
421,61	2313,39
421,82	2246,62
422,03	2362,95
422,23	2343,29
422,44	2411,28
422,65	2592,73
422,85	2381,79
423,06	2454,70
423,26	2495,25
423,47	2596,82
423,68	2608,70
423,88	2583,72
424,09	2600,10
424,30	2645,16
424,50	2555,86
424,71	2611,16
424,92	2815,14
425,12	2920,81
425,33	2865,93
425,54	2779,50
425,74	2823,74
425,95	2875,76
426,15	2746,33
426,36	2857,33
426,57	2948,67
426,77	2992,90
426,98	2955,63
427,19	2984,30
427,39	3022,80
427,60	3217,36
427,81	3147,73
428,01	3208,35
428,22	3243,57
428,42	3165,75
428,63	3242,75
428,84	3324,67
429,04	3327,54
429,25	3343,10
429,45	3215,72
429,66	3639,24
429,87	3445,50
430,07	3777,27
430,28	3666,27
430,49	3699,45
430,69	3767,03
430,90	3698,22
431,10	3704,78
431,31	3846,90
431,52	3945,62
431,72	3891,14
431,93	3913,67
432,13	4046,79
432,34	4161,88
432,55	3937,83
432,75	4193,83
432,96	4242,16
433,16	4325,31
433,37	4319,99
433,58	4356,03
433,78	4394,53
433,99	4241,75
434,19	4441,23
434,40	4533,79
434,60	4511,68
434,81	4705,00
435,02	4526,83
435,22	4755,79
435,43	4703,37
435,63	4741,46
435,84	4818,87
436,05	5042,51
436,25	4782,01
436,46	5127,70
436,66	5006,05
436,87	5200,61
437,07	4965,10
437,28	5187,91
437,48	5280,48
437,69	5140,81
437,90	5289,90
438,10	5312,84
438,31	5443,91
438,51	5501,25
438,72	5539,35
438,92	5499,21
439,13	5610,21
439,34	5699,50
439,54	5851,05
439,75	5670,01
439,95	5767,90
440,16	5858,42
440,36	6201,25
440,57	5998,09
440,77	6365,91
440,98	6104,18
441,18	6022,26
441,39	6174,63
441,60	6462,98
441,80	6397,44
442,01	6240,57
442,21	6579,71
442,42	6434,31
442,62	6593,64
442,83	6484,28
443,03	6623,95
443,24	6699,32
443,44	6727,58
443,65	6764,85
443,85	6777,55
444,06	7075,73
444,26	7053,20
444,47	6939,34
444,67	7198,61
444,88	7135,12
445,09	7143,32
445,29	7256,77
445,50	7533,25
445,70	7222,78
445,91	7377,19
446,11	7270,70
446,32	7665,14
446,52	7703,23
446,73	7792,93
446,93	7853,96
447,14	7914,17
447,34	7987,90
447,55	7834,71
447,75	8022,30
447,96	8343,83
448,16	8364,31
448,37	8413,87
448,57	8304,51
448,78	8526,51
448,98	8602,70
449,19	8604,34
449,39	8794,80
449,60	8783,33
449,80	9055,30
450,01	9081,10
450,21	9017,62
450,42	9367,82
450,62	9274,43
450,83	9317,03
451,03	9542,72
451,23	9424,75
451,44	9641,43
451,64	9804,86
451,85	9713,11
452,05	10104,27
452,26	9924,46
452,46	10105,09
452,67	10076,01
452,87	10111,64
453,08	10107,54
453,28	9979,75
453,49	10541,30
453,69	10377,88
453,90	10524,10
454,10	10890,69
454,31	10787,88
454,51	10800,17
454,71	10635,51
454,92	10608,48
455,12	10426,62
455,33	11000,87
455,53	11196,25
455,74	11248,26
455,94	11849,55
456,15	11595,60
456,35	12192,38
456,55	11819,24
456,76	11957,27
456,96	12489,74
457,17	11395,31
457,37	12786,29
457,58	12036,73
457,78	12441,41
457,99	12339,42
458,19	11625,09
458,39	12361,54
458,60	12264,47
458,80	12313,21
459,01	11727,08
459,21	11714,79
459,42	12047,38
459,62	11629,19
459,82	12518,82
460,03	11916,72
460,23	12358,26
460,44	11832,34
460,64	11256,05
460,85	11951,13
461,05	11250,31
461,25	11031,18
461,46	11727,49
461,66	11231,06
461,87	10980,80
462,07	11091,80
462,27	10909,12
462,48	10533,11
462,68	10735,86
462,89	10356,99
463,09	10941,89
463,29	10563,42
463,50	10415,97
463,70	10465,53
463,91	10258,69
464,11	9828,20
464,31	10110,82
464,52	10067,00
464,72	10303,33
464,93	9752,84
465,13	10038,32
465,33	9738,50
465,54	9068,82
465,74	9323,99
465,95	9138,45
466,15	9449,33
466,35	9210,13
466,56	9151,55
466,76	9054,07
466,96	8798,89
467,17	8749,74
467,37	8680,11
467,58	8545,76
467,78	8463,03
467,98	8532,25
468,19	8052,20
468,39	8403,23
468,59	8436,81
468,80	8216,45
469,00	7884,27
469,21	7799,48
469,41	7754,84
469,61	7955,95
469,82	7641,38
470,02	7861,74
470,22	7867,07
470,43	7765,49
470,63	7283,81
470,83	7683,98
471,04	7285,03
471,24	7404,23
471,45	7412,83
471,65	7310,02
471,85	7156,01
472,06	7188,78
472,26	7215,40
472,46	7102,36
472,67	7252,27
472,87	7079,42
473,07	7003,64
473,28	6836,12
473,48	6959,82
473,68	7079,01
473,89	6965,96
474,09	6965,14
474,29	6719,39
474,50	6867,25
474,70	6682,52
474,90	6914,35
475,11	6770,99
475,31	6866,02
475,51	6737,41
475,72	6743,55
475,92	6616,58
476,12	6443,73
476,33	6884,04
476,53	6585,04
476,73	6499,84
476,93	6580,53
477,14	6383,52
477,34	6435,95
477,54	6460,52
477,75	6433,08
477,95	6382,70
478,15	6413,01
478,36	6338,87
478,56	6305,29
478,76	6328,22
478,97	6312,66
479,17	6182,00
479,37	6225,01
479,57	6148,82
479,78	6124,25
479,98	6104,59
480,18	6256,95
480,39	6237,70
480,59	6213,54
480,79	6154,97
480,99	6172,99
481,20	6053,80
481,40	6256,95
481,60	6079,19
481,81	6121,38
482,01	6080,01
482,21	5901,02
482,41	5992,77
482,62	5960,41
482,82	5903,47
483,02	6076,73
483,23	5770,36
483,43	5980,89
483,63	5818,28
483,83	5887,91
484,04	6104,59
484,24	5794,11
484,44	5851,05
484,64	5835,48
484,85	5793,70
485,05	5754,79
485,25	5822,38
485,45	5678,20
485,66	5793,29
485,86	5658,54
486,06	5761,35
486,26	5797,80
486,47	5697,04
486,67	5531,56
486,87	5747,83
487,07	5714,24
487,28	5556,55
487,48	5575,80
487,68	5656,08
487,88	5636,01
488,09	5618,81
488,29	5738,82
488,49	5693,35
488,69	5640,93
488,90	5680,66
489,10	5530,33
489,30	5520,91
489,50	5674,92
489,71	5656,90
489,91	5641,33
490,11	5634,37
490,31	5674,10
490,52	5617,58
490,72	5605,70
490,92	5809,27
491,12	5663,86
491,32	5617,17
491,53	5690,90
491,73	5609,80
491,93	5473,81
492,13	5729,40
492,33	5629,05
492,54	5666,73
492,74	5773,63
492,94	5657,31
493,14	5738,82
493,35	5623,31
493,55	5624,95
493,75	5747,42
493,95	5744,55
494,15	5720,80
494,36	5779,78
494,56	5770,36
494,76	5675,33
494,96	5737,18
495,16	5777,73
495,37	5828,11
495,57	5599,15
495,77	5779,37
495,97	5842,04
496,17	5821,97
496,37	5880,13
496,58	5929,69
496,78	5791,66
496,98	5728,17
497,18	6044,78
497,38	6036,18
497,59	6193,06
497,79	5811,32
497,99	6078,37
498,19	5853,09
498,39	6111,55
498,59	5889,55
498,80	6091,48
499,00	6115,64
499,20	5991,95
499,40	5904,70
499,60	6023,49
499,80	6139,81
500,01	6104,18
500,21	6039,87
500,41	6155,37
500,61	6229,92
500,81	6240,57
501,01	6215,99
501,22	6214,77
501,42	6229,92
501,62	6202,48
501,82	6388,84
502,02	6318,39
502,22	6247,53
502,42	6385,16
502,63	6561,69
502,83	6501,07
503,03	6485,10
503,23	6416,29
503,43	6487,56
503,63	6631,32
503,83	6692,35
504,04	6625,59
504,24	6714,88
504,44	6716,52
504,64	6698,09
504,84	6846,36
505,04	6785,33
505,24	6831,61
505,44	6951,22
505,65	7076,55
505,85	7205,57
506,05	7161,34
506,25	7162,16
506,45	7267,83
506,65	7302,65
506,85	7398,49
507,05	7655,72
507,26	7596,33
507,46	7749,92
507,66	7718,38
507,86	7760,16
508,06	7895,33
508,26	7823,24
508,46	8065,31
508,66	8042,37
508,86	8357,35
509,06	8331,55
509,27	8330,73
509,47	8433,94
509,67	8513,00
509,87	8638,33
510,07	8887,77
510,27	8948,80
510,47	9018,44
510,67	9198,66
510,87	9226,92
511,07	9162,61
511,28	9400,18
511,48	9506,26
511,68	9600,88
511,88	9595,14
512,08	9693,45
512,28	9968,69
512,48	10009,24
512,68	10131,71
512,88	10231,24
513,08	10602,33
513,28	10691,22
513,48	10846,86
513,68	11008,24
513,89	11133,17
514,09	11070,09
514,29	11312,16
514,49	11349,02
514,69	11527,20
514,89	11677,52
515,09	11876,17
515,29	12205,07
515,49	12155,92
515,69	12628,18
515,89	12895,24
516,09	12922,27
516,29	12883,36
516,49	13008,70
516,69	13318,76
516,89	13363,00
517,09	13464,98
517,29	13884,00
517,50	13914,31
517,70	14209,22
517,90	14406,64
518,10	14563,92
518,30	15050,11
518,50	15081,65
518,70	15481,01
518,90	15920,09
519,10	16107,68
519,30	16114,65
519,50	16282,17
519,70	16520,55
519,90	16786,38
520,10	17091,94
520,30	17232,84
520,50	17275,03
520,70	17626,87
520,90	18150,74
521,10	18198,66
521,30	18387,89
521,50	19069,05
521,70	19168,17
521,90	19212,81
522,10	19622,00
522,30	19523,70
522,50	19916,50
522,70	20024,22
522,90	20366,64
523,10	20603,38
523,30	21219,82
523,50	21339,42
523,70	21552,82
523,90	21480,73
524,10	22141,41
524,30	22302,38
524,50	22505,13
524,70	22829,53
524,90	23087,16
525,10	23552,87
525,30	23406,64
525,50	24064,45
525,70	24182,42
525,90	24297,51
526,10	24701,78
526,30	24976,62
526,50	25407,51
526,70	25545,13
526,90	25877,31
527,10	26013,71
527,30	26685,44
527,50	27020,90
527,70	27199,48
527,90	27281,81
528,10	27672,97
528,30	27971,98
528,50	28262,38
528,70	28416,39
528,90	28786,66
529,10	29067,23
529,30	29083,20
529,50	29800,81
529,70	29940,07
529,90	30243,99
530,10	30624,92
530,29	30600,75
530,49	30946,86
530,69	31161,89
530,89	31566,16
531,09	31475,64
531,29	31941,76
531,49	32274,35
531,69	32591,78
531,89	32568,03
532,09	32985,40
532,29	33168,90
532,49	33465,04
532,69	34080,66
532,89	34139,64
533,09	34434,96
533,29	34785,98
533,49	34857,25
533,68	35021,08
533,88	35753,44
534,08	35779,24
534,28	35438,46
534,48	35812,42
534,68	35873,04
534,88	36049,17
535,08	36772,92
535,28	36861,39
535,48	37094,04
535,68	37550,33
535,88	37907,49
536,08	38287,59
536,27	38297,43
536,47	38476,01
536,67	38934,75
536,87	39187,88
537,07	39039,61
537,27	39639,25
537,47	39975,53
537,67	39701,10
537,87	40356,45
538,07	40601,80
538,27	40373,25
538,46	40943,81
538,66	40968,80
538,86	41167,04
539,06	41958,37
539,26	41848,19
539,46	41932,57
539,66	42142,28
539,86	42056,27
540,06	42646,90
540,25	42568,26
540,45	42825,89
540,65	42988,91
540,85	43511,96
541,05	43683,58
541,25	43319,45
541,45	43333,38
541,65	43459,94
541,85	43982,59
542,04	43785,57
542,24	44294,29
542,44	44990,19
542,64	44722,72
542,84	44820,62
543,04	44790,31
543,24	44850,52
543,43	45037,70
543,63	45657,82
543,83	45081,12
544,03	45311,31
544,23	45580,00
544,43	45412,89
544,63	45492,35
544,82	46306,62
545,02	45864,67
545,22	46727,27
545,42	46269,76
545,62	47274,08
545,82	47049,62
546,02	46763,32
546,21	47075,43
546,41	47354,77
546,61	46607,26
546,81	47213,87
547,01	47468,23
547,21	47983,50
547,40	47523,52
547,60	48070,74
547,80	47627,56
548,00	47968,34
548,20	47870,86
548,40	47958,51
548,59	48101,05
548,79	48310,76
548,99	48697,42
549,19	48357,87
549,39	48969,39
549,59	49092,68
549,78	49034,93
549,98	48984,14
550,18	48926,38
550,38	48929,66
550,58	49640,30
550,77	49788,17
550,97	49986,00
551,17	49302,39
551,37	49949,96
551,57	49401,92
551,76	49056,63
551,96	49330,65
552,16	49199,99
552,36	49625,56
552,56	49823,80
552,75	50025,32
552,95	49864,35
553,15	49795,13
553,35	50022,87
553,55	49058,68
553,74	49980,68
553,94	49590,33
554,14	50068,74
554,34	50250,19
554,54	50611,04
554,73	50769,96
554,93	50816,66
555,13	50873,59
555,33	50388,22
555,53	50591,79
555,72	50746,21
555,92	51129,59
556,12	50903,49
556,32	50791,67
556,51	51236,49
556,71	51560,48
556,91	51180,79
557,11	51672,71
557,30	52161,76
557,50	51882,83
557,70	51461,77
557,90	52037,25
558,10	51578,91
558,29	51614,14
558,49	51756,68
558,69	51489,21
558,89	51367,56
559,08	51716,54
559,28	51425,31
559,48	51598,57
559,68	51775,93
559,87	52177,33
560,07	51953,69
560,27	52387,04
560,47	51959,83
560,66	52104,83
560,86	51879,14
561,06	51907,41
561,25	52223,61
561,45	52173,23
561,65	52163,40
561,85	52290,38
562,04	52770,42
562,24	52504,18
562,44	53113,66
562,64	52597,16
562,83	52824,49
563,03	52361,65
563,23	52259,25
563,42	52267,44
563,62	52396,87
563,82	52269,90
564,02	52708,98
564,21	52423,90
564,41	52668,43
564,61	52742,57
564,80	52809,74
565,00	52900,67
565,20	52710,21
565,40	52575,04
565,59	52180,20
565,79	52431,28
565,99	52505,82
566,18	52495,17
566,38	52253,51
566,58	52096,64
566,78	51693,60
566,97	52393,59
567,17	52801,55
567,37	53037,89
567,56	52756,90
567,76	52990,37
567,96	52989,14
568,15	52663,93
568,35	52460,36
568,55	52170,78
568,74	51845,56
568,94	52505,00
569,14	52577,91
569,33	52739,70
569,53	52719,63
569,73	53089,49
569,92	53227,12
570,12	53014,95
570,32	53093,59
570,52	52416,12
570,71	52749,94
570,91	52101,14
571,11	52629,93
571,30	52368,20
571,50	52837,18
571,70	52998,56
571,89	52399,74
572,09	52748,71
572,28	52493,53
572,48	52574,22
572,68	52845,38
572,87	53133,73
573,07	53013,31
573,27	52273,99
573,46	52203,95
573,66	52776,97
573,86	52569,31
574,05	53295,11
574,25	52946,55
574,45	52972,76
574,64	52713,90
574,84	52758,13
575,04	52106,88
575,23	52056,09
575,43	52584,06
575,62	53007,17
575,82	52838,82
576,02	52421,86
576,21	52513,61
576,41	52317,00
576,61	52371,07
576,80	52330,93
577,00	52484,93
577,19	52056,91
577,39	53010,85
577,59	52464,45
577,78	52528,35
577,98	52254,74
578,18	52154,80
578,37	52471,83
578,57	52770,01
578,76	52279,32
578,96	52104,83
579,16	52457,08
579,35	52725,77
579,55	52331,34
579,74	52468,96
579,94	52507,46
580,14	52891,25
580,33	53105,06
580,53	53213,19
580,72	52843,74
580,92	52487,39
581,12	51696,06
581,31	51836,55
581,51	51658,78
581,70	51539,18
581,90	51954,51
582,10	51716,13
582,29	52271,13
582,49	52180,61
582,68	52193,30
582,88	52461,59
583,07	52227,30
583,27	52201,49
583,47	52312,49
583,66	52245,73
583,86	51698,10
584,05	51598,16
584,25	51924,61
584,44	52204,77
584,64	52215,42
584,84	51753,81
585,03	51712,44
585,23	51413,44
585,42	51704,66
585,62	51037,43
585,81	51738,65
586,01	51373,30
586,20	51347,90
586,40	51421,22
586,60	50813,79
586,79	51135,32
586,99	51132,86
587,18	50985,82
587,38	51035,79
587,57	50826,49
587,77	51250,83
587,96	51252,06
588,16	50452,53
588,35	50635,62
588,55	50679,03
588,75	50664,29
588,94	50735,56
589,14	50948,14
589,33	50663,47
589,53	51072,65
589,72	50105,19
589,92	50400,10
590,11	50102,74
590,31	50022,46
590,50	50694,19
590,70	50180,56
590,89	50550,83
591,09	49685,36
591,28	49718,95
591,48	49694,78
591,67	49675,94
591,87	50175,23
592,06	50387,81
592,26	50164,99
592,45	50069,97
592,65	50216,60
592,84	50136,32
593,04	50003,20
593,23	50157,62
593,43	50087,99
593,62	49807,42
593,82	49479,33
594,01	49130,77
594,21	49768,92
594,40	49367,93
594,60	49265,12
594,79	49449,43
594,99	49006,25
595,18	50060,55
595,38	49783,25
595,57	49358,09
595,77	49859,85
595,96	49361,37
596,16	49290,10
596,35	49271,26
596,55	49107,01
596,74	49194,26
596,94	49438,78
597,13	49047,62
597,33	48448,80
597,52	48114,98
597,72	47999,06
597,91	48283,32
598,11	48052,31
598,30	48259,15
598,50	48579,46
598,69	48323,05
598,88	48436,10
599,08	48071,56
599,27	47945,82
599,47	47817,61
599,66	47709,07
599,86	47845,47
600,05	47743,48
600,25	47845,47
600,44	47067,24
600,64	47229,03
600,83	46902,17
601,02	46907,09
601,22	46473,33
601,41	46512,24
601,61	46730,14
601,80	47245,00
602,00	47251,55
602,19	46687,13
602,38	46307,03
602,58	46012,94
602,77	45939,22
602,97	45917,10
603,16	46114,52
603,36	45378,48
603,55	46299,25
603,74	45237,99
603,94	45535,36
604,13	46008,44
604,33	45333,02
604,52	45016,40
604,72	44830,86
604,91	44693,64
605,10	44889,84
605,30	44485,16
605,49	44855,84
605,69	44753,85
605,88	44340,16
606,07	44947,18
606,27	45031,56
606,46	44793,58
606,66	44707,98
606,85	44251,28
607,04	44345,90
607,24	44300,02
607,43	44617,87
607,63	44396,69
607,82	44267,66
608,01	44440,51
608,21	43788,44
608,40	43890,84
608,60	43340,75
608,79	43817,52
608,98	43113,43
609,18	43701,20
609,37	43349,35
609,57	42922,15
609,76	42968,02
609,95	42886,51
610,15	43113,02
610,34	42934,85
610,53	42789,44
610,73	42732,10
610,92	42533,85
611,11	42346,26
611,31	42025,96
611,50	41624,15
611,70	41638,89
611,89	41784,30
612,08	41795,77
612,28	41520,93
612,47	41342,75
612,66	40721,40
612,86	40808,64
613,05	40901,21
613,24	40519,88
613,44	40659,96
613,63	40670,61
613,82	40698,46
614,02	40254,05
614,21	39937,44
614,41	39949,73
614,60	40421,99
614,79	39665,06
614,99	40121,35
615,18	40216,78
615,37	39860,43
615,57	40341,71
615,76	39823,16
615,95	39815,79
616,15	39910,00
616,34	39890,74
616,53	39151,43
616,73	39385,72
616,92	38895,02
617,11	38969,98
617,30	38765,59
617,50	39072,79
617,69	39536,86
617,88	39642,53
618,08	39378,34
618,27	39450,84
618,46	39586,01
618,66	39568,39
618,85	39545,05
619,04	39490,98
619,24	39846,92
619,43	39851,83
619,62	39606,90
619,82	39770,32
620,01	39583,14
620,20	39645,81
620,39	39745,34
620,59	39667,11
620,78	39891,15
620,97	40010,35
621,17	39969,39
621,36	40198,35
621,55	39753,53
621,74	39671,20
621,94	39642,12
622,13	40116,84
622,32	39731,41
622,52	39929,66
622,71	39712,16
622,90	40047,62
623,09	40148,79
623,29	40093,90
623,48	40516,19
623,67	39773,19
623,86	39898,53
624,06	39566,35
624,25	39286,18
624,44	39468,86
624,64	38927,38
624,83	39048,21
625,02	38754,94
625,21	39150,61
625,41	39356,63
625,60	39421,76
625,79	38825,80
625,98	39203,45
626,18	39488,52
626,37	39172,73
626,56	39193,21
626,75	39799,82
626,95	39392,68
627,14	39377,11
627,33	39340,66
627,52	39238,26
627,72	39098,59
627,91	38966,29
628,10	39182,15
628,29	39104,32
628,49	38868,40
628,68	38776,24
628,87	38649,68
629,06	39188,70
629,25	38480,51
629,45	38250,32
629,64	38559,16
629,83	38305,21
630,02	37961,97
630,22	37821,89
630,41	37927,97
630,60	37688,36
630,79	37315,63
630,98	37560,16
631,18	37544,18
631,37	37427,45
631,56	37875,54
631,75	37950,50
631,94	37522,06
632,14	37308,26
632,33	36957,23
632,52	36890,88
632,71	36956,01
632,90	36506,27
633,10	36068,83
633,29	35954,55
633,48	36059,40
633,67	35929,15
633,86	36304,34
634,06	36184,33
634,25	36223,65
634,44	36208,91
634,63	35862,39
634,82	35745,66
635,02	35473,28
635,21	35178,37
635,40	34926,88
635,59	34503,36
635,78	34471,00
635,97	34081,48
636,17	33856,20
636,36	34375,57
636,55	34443,15
636,74	34883,05
636,93	34022,90
637,12	34276,03
637,32	34406,69
637,51	33845,55
637,70	33859,07
637,89	33494,94
638,08	33522,79
638,27	33695,64
638,47	33517,06
638,66	33285,64
638,85	32889,97
639,04	32840,82
639,23	32942,81
639,42	33058,72
639,62	33108,69
639,81	32774,05
640,00	32746,61
640,19	32336,61
640,38	32061,36
640,57	31904,49
640,76	31831,17
640,95	31867,21
641,15	31662,01
641,34	31816,42
641,53	31735,32
641,72	31484,24
641,91	31986,81
642,10	31395,36
642,29	31427,72
642,49	31515,78
642,68	31172,54
642,87	31380,62
643,06	31364,23
643,25	31424,03
643,44	31009,93
643,63	31095,54
643,82	30950,95
644,01	30743,29
644,21	30692,50
644,40	30554,06
644,59	30356,22
644,78	30403,73
644,97	30393,49
645,16	30388,17
645,35	30224,74
645,54	30357,45
645,73	29964,24
645,92	30065,00
646,12	29924,10
646,31	29766,82
646,50	29952,77
646,69	29948,27
646,88	29430,54
647,07	29699,23
647,26	29491,57
647,45	29577,58
647,64	29173,72
647,83	29437,09
648,02	29190,52
648,22	29039,38
648,41	28624,05
648,60	28483,15
648,79	28297,19
648,98	28708,84
649,17	28581,45
649,36	28485,20
649,55	28226,33
649,74	28043,66
649,93	27577,54
650,12	27579,59
650,31	27378,07
650,50	27185,97
650,69	27531,25
650,88	27496,03
651,08	26938,57
651,27	27277,71
651,46	27172,04
651,65	26758,35
651,84	26503,17
652,03	26523,24
652,22	26676,84
652,41	26328,28
652,60	26727,22
652,79	26671,52
652,98	26363,50
653,17	26064,50
653,36	26027,23
653,55	25779,42
653,74	26170,17
653,93	26037,47
654,12	25990,77
654,31	25845,78
654,50	25971,52
654,69	25733,14
654,88	25420,21
655,07	25295,69
655,26	25014,30
655,45	25122,43
655,64	24875,86
655,83	24588,32
656,02	24606,75
656,21	24283,18
656,40	24446,60
656,59	24569,89
656,78	24182,42
656,97	24261,88
657,17	24165,62
657,36	23772,82
657,55	24161,12
657,74	24183,64
657,93	23944,44
658,12	23708,52
658,31	23815,01
658,50	23796,58
658,69	23653,22
658,87	23980,08
659,06	23697,05
659,25	23751,93
659,44	23501,26
659,63	23788,80
659,82	23732,68
660,01	23077,74
660,20	23047,84
660,39	23148,60
660,58	22745,56
660,77	22683,30
660,96	22704,60
661,15	22662,00
661,34	22724,67
661,53	22565,34
661,72	22612,44
661,91	22462,94
662,10	22444,51
662,29	22127,89
662,48	21866,98
662,67	21984,53
662,86	21764,99
663,05	21784,24
663,24	22059,08
663,43	21750,66
663,62	21723,21
663,81	21417,66
664,00	21565,11
664,19	21263,65
664,38	21263,24
664,57	20973,66
664,76	21080,97
664,94	20930,24
665,13	20785,65
665,32	20572,67
665,51	20654,17
665,70	20410,06
665,89	20449,79
666,08	20236,39
666,27	20112,28
666,46	19823,93
666,65	19956,64
666,84	19930,42
667,03	19927,56
667,22	19578,17
667,41	19819,83
667,60	19660,09
667,78	19456,52
667,97	19538,85
668,16	19454,47
668,35	19112,46
668,54	19016,21
668,73	19268,93
668,92	19035,87
669,11	19106,32
669,30	19138,68
669,49	19060,85
669,68	19032,59
669,86	18952,72
670,05	18998,60
670,24	18606,21
670,43	18705,33
670,62	18667,64
670,81	18758,57
671,00	18660,27
671,19	18830,25
671,38	18499,30
671,57	18663,96
671,75	18351,44
671,94	18271,57
672,13	18072,10
672,32	17916,86
672,51	17822,65
672,70	18161,80
672,89	17754,25
673,08	17689,53
673,26	17567,89
673,45	17301,24
673,64	17550,68
673,83	17358,58
674,02	17315,58
674,21	17539,21
674,40	17297,14
674,59	17359,81
674,77	17401,59
674,96	17293,46
675,15	17148,87
675,34	17341,79
675,53	17077,19
675,72	16945,71
675,91	16943,66
676,09	16826,11
676,28	16817,51
676,47	16450,51
676,66	16220,73
676,85	16580,36
677,04	16478,37
677,22	16360,40
677,41	16165,03
677,60	16402,18
677,79	16124,07
677,98	16067,13
678,17	15914,77
678,36	15912,31
678,54	15650,58
678,73	15756,25
678,92	15435,95
679,11	15443,32
679,30	15189,78
679,48	15347,89
679,67	15057,90
679,86	15240,16
680,05	15112,78
680,24	14742,51
680,43	14872,35
680,61	14706,46
680,80	14675,74
680,99	14754,80
681,18	14622,50
681,37	14679,43
681,55	14853,51
681,74	14638,88
681,93	14759,30
682,12	14465,21
682,31	14577,03
682,49	14543,04
682,68	14596,28
682,87	14299,33
683,06	14261,64
683,25	14309,98
683,43	14278,85
683,62	14100,67
683,81	14300,97
684,00	14249,36
684,19	14010,15
684,37	14022,03
684,56	13921,68
684,75	13874,58
684,94	13828,70
685,12	13960,59
685,31	13776,69
685,50	13532,98
685,69	13491,61
685,88	13388,80
686,06	13332,69
686,25	13342,11
686,44	13238,48
686,63	13102,90
686,81	13120,93
687,00	13157,38
687,19	13099,22
687,38	13194,65
687,56	12816,19
687,75	12992,31
687,94	12866,98
688,13	12695,36
688,31	12673,24
688,50	12584,36
688,69	12597,47
688,88	12646,62
689,06	12510,63
689,25	12388,98
689,44	12212,45
689,63	12159,61
689,81	12237,84
690,00	12236,61
690,19	12391,85
690,38	12320,99
690,56	12160,84
690,75	12234,97
690,94	12092,44
691,13	12234,57
691,31	12075,23
691,50	11960,96
691,69	11993,72
691,87	11708,24
692,06	11859,79
692,25	11755,34
692,44	11414,15
692,62	11598,47
692,81	11786,47
693,00	11615,67
693,18	11537,44
693,37	11586,59
693,56	11290,04
693,75	11479,68
693,93	11527,20
694,12	11554,64
694,31	11353,94
694,49	11153,65
694,68	11157,74
694,87	11028,31
695,05	11023,81
695,24	10966,87
695,43	10835,80
695,62	10810,41
695,80	10821,47
695,99	10868,98
696,18	10622,40
696,36	10826,38
696,55	10569,98
696,74	10411,87
696,92	10707,60
697,11	10482,32
697,30	10552,77
697,48	10293,09
697,67	10311,11
697,86	10263,60
698,04	10104,27
698,23	10074,78
698,42	10261,14
698,60	10013,34
698,79	10250,08
698,98	10066,18
699,16	10098,53
699,35	10012,93
699,54	10035,05
699,72	9821,24
699,91	10212,81
700,10	9979,75
700,28	9797,48
700,47	10038,73
700,66	9797,89
700,84	9731,95
701,03	9607,43
701,21	10326,68
701,40	9711,06
701,59	9564,01
701,77	9541,08
701,96	9512,41
702,15	9490,70
702,33	9484,14
702,52	9435,40
702,71	9579,99
702,89	9466,12
703,08	9453,83
703,26	9430,49
703,45	9437,04
703,64	9234,70
703,82	9315,80
704,01	9085,61
704,20	9049,15
704,38	9025,81
704,57	8866,07
704,75	8744,83
704,94	8843,13
705,13	8964,78
705,31	8972,97
705,50	8903,34
705,68	8886,14
705,87	8860,33
706,06	8841,90
706,24	8702,64
706,43	8541,26
706,61	8734,18
706,80	8594,51
706,99	8663,73
707,17	8801,35
707,36	8597,78
707,54	8419,20
707,73	8501,94
707,92	8399,13
708,10	8256,18
708,29	8220,55
708,47	8272,16
708,66	8375,37
708,84	8243,07
709,03	8228,74
709,22	8262,33
709,40	8229,15
709,59	8111,19
709,77	8155,42
709,96	8080,47
710,14	7861,33
710,33	8075,14
710,52	8006,33
710,70	8139,86
710,89	7938,75
711,07	7958,00
711,26	7900,65
711,44	7920,31
711,63	7886,73
711,81	7859,69
712,00	7657,76
712,19	7733,54
712,37	7755,66
712,56	7681,52
712,74	7572,98
712,93	7634,83
713,11	7627,05
713,30	7538,16
713,48	7628,68
713,67	7536,12
713,85	7423,07
714,04	7533,66
714,22	7561,51
714,41	7485,74
714,59	7356,71
714,78	7410,78
714,97	7272,34
715,15	7171,58
715,34	7300,60
715,52	7123,65
715,71	7237,11
715,89	7125,70
716,08	7126,11
716,26	7087,61
716,45	7090,07
716,63	7130,62
716,82	7014,70
717,00	6937,70
717,19	7083,10
717,37	6979,89
717,56	6955,31
717,74	6908,21
717,93	6872,16
718,11	6906,57
718,30	6768,95
718,48	6857,83
718,67	6882,40
718,85	6687,85
719,04	6657,13
719,22	6505,99
719,41	6546,54
719,59	6613,71
719,78	6462,57
719,96	6495,75
720,15	6563,33
720,33	6511,72
720,52	6441,27
720,70	6332,32
720,88	6457,66
721,07	6345,84
721,25	6344,20
721,44	6268,42
721,62	6309,38
721,81	6132,85
721,99	5983,76
722,18	6132,44
722,36	6128,75
722,55	6059,12
722,73	6004,64
722,92	6032,09
723,10	5931,74
723,28	5991,95
723,47	6057,48
723,65	6095,16
723,84	5945,25
724,02	5850,64
724,21	5946,89
724,39	5880,54
724,58	5826,06
724,76	5959,59
724,94	5786,33
725,13	5901,84
725,31	5819,92
725,50	5846,54
725,68	5756,02
725,87	5620,45
726,05	5627,41
726,23	5588,91
726,42	5597,10
726,60	5522,14
726,79	5442,68
726,97	5467,26
727,16	5601,60
727,34	5421,79
727,52	5404,18
727,71	5502,07
727,89	5354,21
728,08	5304,65
728,26	5352,57
728,44	5357,49
728,63	5486,92
728,81	5265,74
729,00	5270,24
729,18	5287,04
729,36	5236,25
729,55	5212,08
729,73	5405,41
729,92	5254,68
730,10	5143,68
730,28	5170,71
730,47	5129,34
730,65	5199,38
730,84	5267,79
731,02	5008,51
731,20	5247,31
731,39	5072,41
731,57	5060,94
731,75	5144,50
731,94	4974,52
732,12	5091,25
732,31	4928,23
732,49	4955,67
732,67	4959,36
732,86	4871,71
733,04	4941,75
733,22	4828,29
733,41	4795,52
733,59	4851,64
733,78	4764,80
733,96	4840,58
734,14	4629,23
734,33	4692,31
734,51	4734,08
734,69	4762,76
734,88	4694,76
735,06	4632,10
735,24	4587,45
735,43	4729,99
735,61	4495,29
735,79	4633,73
735,98	4609,57
736,16	4768,49
736,34	4607,93
736,53	4609,57
736,71	4627,18
736,89	4593,59
737,08	4563,69
737,26	4468,67
737,44	4418,70
737,63	4472,35
737,81	4340,87
737,99	4540,76
738,18	4433,85
738,36	4571,48
738,54	4459,66
738,73	4381,83
738,91	4526,83
739,09	4367,50
739,28	4237,66
739,46	4243,80
739,64	4356,03
739,82	4313,43
740,01	4224,14
740,19	4485,05
740,37	4287,63
740,56	4228,24
740,74	4173,76
740,92	4241,75
741,11	4099,62
741,29	4177,04
741,47	4365,86
741,65	4161,88
741,84	4123,79
742,02	4245,03
742,20	4086,93
742,39	4092,66
742,57	4067,27
742,75	3927,18
742,93	3984,53
743,12	3971,01
743,30	3907,52
743,48	3948,48
743,67	3947,25
743,85	3834,62
744,03	4086,11
744,21	3907,11
744,40	3883,36
744,58	3928,82
744,76	3921,45
744,94	3953,81
745,13	3863,29
745,31	3830,52
745,49	3790,38
745,67	3754,34
745,86	3913,67
746,04	3847,31
746,22	3805,54
746,40	3687,57
746,59	3705,19
746,77	3843,63
746,95	3892,78
747,13	3753,11
747,32	3721,57
747,50	3684,71
747,68	3686,34
747,86	3632,69
748,05	3769,49
748,23	3585,58
748,41	3665,86
748,59	3536,02
748,77	3521,69
748,96	3498,34
749,14	3373,41
749,32	3778,09
749,50	3569,61
749,69	3653,17
749,87	3629,82
750,05	3508,58
750,23	3488,51
750,41	3434,03
750,60	3561,83
750,78	3424,20
750,96	3566,33
751,14	3483,59
751,32	3425,84
751,51	3368,91
751,69	3289,86
751,87	3250,13
752,05	3457,38
752,23	3423,38
752,42	3309,11
752,60	3407,41
752,78	3377,51
752,96	3275,93
753,14	3316,48
753,33	3270,61
753,51	3314,84
753,69	3353,34
753,87	3333,27
754,05	3398,81
754,23	3319,35
754,42	3289,45
754,60	3336,14
754,78	3452,88
754,96	3130,93
755,14	3215,72
755,32	3311,98
755,51	3135,03
755,69	3231,29
755,87	3187,46
756,05	3141,99
756,23	3228,01
756,41	3187,05
756,60	3200,57
756,78	3225,14
756,96	3149,78
757,14	3243,57
757,32	3101,03
757,50	3242,34
757,68	3177,63
757,87	3103,49
758,05	3172,30
758,23	3102,67
758,41	3243,98
758,59	3274,70
758,77	3260,78
758,95	3212,85
759,14	3107,18
759,32	3234,97
759,50	3081,78
759,68	3080,55
759,86	3073,59
760,04	3109,23
760,22	3131,34
760,40	3397,58
760,59	3130,53
760,77	3216,95
760,95	3128,07
761,13	3041,23
761,31	3185,82
761,49	3155,92
761,67	3262,41
761,85	3048,61
762,03	3049,84
762,22	3191,55
762,40	3140,36
762,58	3064,17
762,76	3056,80
762,94	3051,88
763,12	3068,27
763,30	3166,98
763,48	3103,90
763,66	2986,35
763,84	2978,57
764,02	3037,14
764,21	3008,47
764,39	3252,99
764,57	3046,15
764,75	3033,45
764,93	3135,44
765,11	3035,91
765,29	3092,84
765,47	3043,69
765,65	3003,96
765,83	3030,58
766,01	2985,94
766,19	3021,57
766,37	3182,95
766,56	2980,61
766,74	2933,92
766,92	2978,57
767,10	2895,01
767,28	2950,71
767,46	2944,57
767,64	2903,61
767,82	2943,34
768,00	2899,51
768,18	2836,44
768,36	2972,01
768,54	3006,42
768,72	2954,81
768,90	2786,06
769,08	2759,02
769,26	2865,93
769,44	2843,81
769,62	2886,82
769,80	2933,51
769,98	2849,54
770,16	2750,83
770,34	2812,27
770,52	2744,28
770,71	2839,71
770,89	2745,92
771,07	2946,21
771,25	2761,07
771,43	2838,48
771,61	2849,95
771,79	2739,77
771,97	2719,29
772,15	2709,87
772,33	2741,00
772,51	2823,33
772,69	2664,82
772,87	2759,02
773,05	2679,97
773,23	2816,37
773,41	2752,47
773,59	2797,12
773,77	2691,03
773,95	2737,72
774,13	2682,02
774,31	2771,72
774,49	2738,95
774,67	2626,72
774,85	2624,27
775,03	2643,52
775,21	2617,30
775,39	2552,18
775,57	2517,36
775,75	2684,07
775,93	2533,34
776,10	2601,33
776,28	2681,20
776,46	2473,54
776,64	2549,31
776,82	2480,50
777,00	4350,30
777,18	2434,22
777,36	2592,32
777,54	2464,94
777,72	2432,99
777,90	2529,24
778,08	2471,49
778,26	2445,68
778,44	2460,84
778,62	2503,03
778,80	2606,65
778,98	2494,43
779,16	2433,81
779,34	2583,31
779,52	2364,99
779,70	2508,35
779,88	2374,01
780,05	2375,23
780,23	2387,52
780,41	2406,36
780,59	2360,49
780,77	2446,09
780,95	2414,56
781,13	2519,82
781,31	2379,74
781,49	2460,43
781,67	2429,71
781,85	2347,79
782,03	2316,66
782,21	2345,74
782,39	2367,86
782,56	2426,84
782,74	2407,18
782,92	2311,75
783,10	2508,76
783,28	2296,59
783,46	2262,19
783,64	2403,91
783,82	2270,38
784,00	2392,03
784,18	2311,75
784,35	2229,01
784,53	2288,40
784,71	2224,09
784,89	2299,87
785,07	2293,72
785,25	2328,13
785,43	2370,32
785,61	2201,16
785,79	2293,32
785,96	2387,11
786,14	2226,14
786,32	2292,91
786,50	2273,25
786,68	2112,27
786,86	2231,47
787,04	2251,54
787,22	2164,70
787,39	2170,85
787,57	2160,20
787,75	2221,64
787,93	2240,48
788,11	2106,13
788,29	2222,87
788,47	2206,89
788,65	2198,29
788,82	2251,13
789,00	2181,91
789,18	2263,42
789,36	2179,86
789,54	2150,37
789,72	2152,82
789,89	2132,35
790,07	2285,12
790,25	2233,92
790,43	2198,29
790,61	2222,46
790,79	2180,27
790,96	2094,66
791,14	2300,69
791,32	2024,62
791,50	2201,98
791,68	2235,97
791,86	2134,80
792,03	2109,00
792,21	2129,48
792,39	2048,79
792,57	2048,38
792,75	1984,89
792,93	2136,03
793,10	2088,11
793,28	2064,35
793,46	2002,09
793,64	2167,57
793,82	2292,50
793,99	2161,43
794,17	1986,94
794,35	2132,75
794,53	2086,06
794,71	1962,77
794,88	1985,71
795,06	2084,83
795,24	1998,41
795,42	2084,83
795,60	2160,20
795,77	2025,85
795,95	2056,16
796,13	2043,87
796,31	2076,64
796,49	2242,94
796,66	2027,90
796,84	2000,05
797,02	2135,21
797,20	2092,20
797,37	2067,22
797,55	1963,18
797,73	2005,78
797,91	1926,73
798,08	2096,30
798,26	2124,97
798,44	1939,02
798,62	1954,99
798,80	1996,77
798,97	2012,33
799,15	2009,88
799,33	2136,44
799,51	2175,76
799,68	2068,04
799,86	2052,88
800,04	2043,05
800,22	2020,53
800,39	1985,71
800,57	2151,19
800,75	2000,05
800,93	2095,07
801,10	2058,21
801,28	2161,02
801,46	1941,06
801,63	2008,24
801,81	2014,79
801,99	1961,54
802,17	1965,23
802,34	2118,42
802,52	1932,87
802,70	2082,37
802,88	2036,50
803,05	2084,42
803,23	1966,46
803,41	1952,94
803,58	2025,85
803,76	1996,36
803,94	2049,20
804,12	1989,81
804,29	2021,75
804,47	2112,27
804,65	2000,87
804,82	1934,92
805,00	1929,19
805,18	1941,06
805,35	1935,74
805,53	2036,50
805,71	1959,91
805,89	2004,55
806,06	2010,70
806,24	1834,57
806,42	1931,23
806,59	1866,93
806,77	1970,56
806,95	1923,45
807,12	2010,29
807,30	1980,39
807,48	1830,88
807,65	1837,85
807,83	1992,67
808,01	1964,82
808,18	1981,61
808,36	1991,44
808,54	1792,38
808,71	1886,18
808,89	1967,28
809,07	1963,59
809,24	1999,23
809,42	2062,71
809,60	1848,09
809,77	1950,90
809,95	1978,75
810,13	1853,82
810,30	1945,98
810,48	2039,37
810,66	1894,78
810,83	1972,19
811,01	1902,15
811,18	1875,53
811,36	1774,36
811,54	1877,17
811,71	1934,10
811,89	1954,17
812,07	1843,17
812,24	2046,74
812,42	1830,06
812,59	1926,32
812,77	1936,15
812,95	1975,47
813,12	1934,92
813,30	1835,39
813,48	1902,15
813,65	1902,56
813,83	1941,06
814,00	1953,76
814,18	1987,35
814,36	1900,51
814,53	1882,90
814,71	1877,17
814,88	1959,91
815,06	1824,33
815,24	1943,52
815,41	1805,49
815,59	1879,63
815,76	1816,55
815,94	1989,81
816,12	1852,18
816,29	1974,65
816,47	1888,23
816,64	1993,08
816,82	1760,43
817,00	1917,31
817,17	1854,23
817,35	2080,74
817,52	1868,57
817,70	1888,64
817,87	1964,41
818,05	1855,46
818,23	1875,53
818,40	1987,35
818,58	1920,99
818,75	1798,94
818,93	1819,83
819,10	1890,68
819,28	1801,80
819,46	1895,19
819,63	1813,27
819,81	1993,49
819,98	1721,52
820,16	1945,57
820,33	1729,71
820,51	2029,54
820,68	1855,46
820,86	1873,89
821,03	1979,98
821,21	1898,06
821,39	2014,79
821,56	1831,29
821,74	1798,12
821,91	1781,32
822,09	1793,20
822,26	1794,43
822,44	1714,97
822,61	1756,75
822,79	1887,41
822,96	1834,57
823,14	1783,37
823,31	1776,41
823,49	1932,46
823,66	1861,19
823,84	1811,63
824,01	1783,37
824,19	1719,88
824,36	1863,65
824,54	1886,59
824,71	1944,34
824,89	1869,80
825,06	1973,01
825,24	1837,85
825,41	1893,55
825,59	1846,45
825,76	1885,36
825,94	1823,92
826,11	1936,56
826,29	1801,80
826,46	1839,49
826,64	1946,80
826,81	1909,12
826,99	1827,20
827,16	1732,17
827,34	1752,65
827,51	1803,03
827,69	1978,34
827,86	1841,94
828,04	1877,17
828,21	1808,77
828,39	1891,91
828,56	1786,65
828,74	1856,28
828,91	1820,64
829,09	2061,49
829,26	1778,05
829,43	1896,01
829,61	1823,92
829,78	1791,15
829,96	1894,37
830,13	1728,08
830,31	1843,99
830,48	1847,68
830,66	1792,79
830,83	1737,50
831,01	1789,11
831,18	1772,72
831,35	1811,22
831,53	1873,89
831,70	1898,06
831,88	2017,66
832,05	1839,90
832,23	1714,56
832,40	1850,54
832,57	1907,89
832,75	1760,84
832,92	1853,00
833,10	1923,86
833,27	1819,83
833,45	1759,61
833,62	1788,70
833,79	1826,79
833,97	1708,01
834,14	1787,88
834,32	1817,37
834,49	1719,06
834,66	1754,29
834,84	1743,64
835,01	1874,30
835,19	1710,46
835,36	1730,53
835,53	1944,75
835,71	1844,40
835,88	1829,25
836,06	1874,30
836,23	1925,09
836,40	1688,76
836,58	1753,88
836,75	1777,64
836,93	1759,61
837,10	1790,74
837,27	1801,80
837,45	1744,05
837,62	1665,41
837,79	1665,41
837,97	1881,67
838,14	1714,15
838,32	1773,95
838,49	1726,85
838,66	1832,52
838,84	1805,08
839,01	1859,56
839,18	1811,63
839,36	1723,98
839,53	1705,96
839,70	1863,24
839,88	1739,54
840,05	1858,33
840,23	1800,16
840,40	1727,67
840,57	1785,83
840,75	1773,54
840,92	1935,74
841,09	1828,84
841,27	1855,46
841,44	1748,15
841,61	1863,24
841,79	1785,83
841,96	1765,35
842,13	1663,77
842,31	1759,21
842,48	1774,77
842,65	1715,38
842,83	1785,42
843,00	1772,31
843,17	1748,97
843,35	1902,56
843,52	1726,85
843,69	1820,64
843,86	1728,90
844,04	1732,99
844,21	1726,44
844,38	1865,29
844,56	1771,90
844,73	1792,38
844,90	1797,30
845,08	1770,67
845,25	1761,25
845,42	1808,36
845,60	1807,95
845,77	1722,34
845,94	1690,80
846,11	1764,94
846,29	1861,60
846,46	1734,63
846,63	1723,16
846,81	1849,32
846,98	1744,46
847,15	1752,24
847,32	1760,02
847,50	1678,52
847,67	1730,94
847,84	1775,18
848,01	1823,51
848,19	1742,00
848,36	1758,80
848,53	1688,35
848,71	1810,81
848,88	1710,46
849,05	1675,24
849,22	1722,34
849,40	1734,22
849,57	1847,68
849,74	1821,46
849,91	1740,77
850,09	1692,85
850,26	1718,66
850,43	1766,58
850,60	1739,95
850,78	1761,66
850,95	1797,71
851,12	1703,09
851,29	1757,57
851,47	1834,16
851,64	1772,72
851,81	1745,69
851,98	1712,92
852,15	1848,09
852,33	1677,70
852,50	1709,23
852,67	1803,44
852,84	1755,93
853,02	1820,64
853,19	1854,64
853,36	1710,05
853,53	1659,26
853,70	1880,85
853,88	1826,79
854,05	1847,27
854,22	1736,27
854,39	1789,92
854,56	1766,17
854,74	1667,46
854,91	1770,26
855,08	1613,80
855,25	1744,87
855,42	1680,56
855,60	1728,49
855,77	1800,57
855,94	1881,67
856,11	1672,78
856,28	1710,87
856,46	1834,57
856,63	1701,86
856,80	1676,88
856,97	1847,68
857,14	1797,71
857,31	1712,10
857,49	1724,80
857,66	1852,18
857,83	1689,57
858,00	1744,05
858,17	1741,18
858,34	1752,65
858,52	1668,68
858,69	1746,92
858,86	1737,09
859,03	1692,85
859,20	1803,44
859,37	1763,71
859,55	1695,72
859,72	1739,95
859,89	1726,03
860,06	1820,64
860,23	1860,78
860,40	1710,87
860,57	1816,55
860,75	1654,76
860,92	1793,20
861,09	1779,68
861,26	1804,26
861,43	1742,00
861,60	1710,46
861,77	1644,52
861,95	1637,97
862,12	1790,33
862,29	1716,61
862,46	1807,13
862,63	1820,23
862,80	1821,46
862,97	1887,41
863,14	1646,98
863,31	1857,92
863,49	1779,28
863,66	1823,92
863,83	1806,72
864,00	1832,93
864,17	1668,28
864,34	1728,49
864,51	1641,24
864,68	1759,21
864,85	1724,80
865,02	1698,59
865,20	1798,12
865,37	1696,95
865,54	1737,50
865,71	1791,97
865,88	1681,38
866,05	1692,85
866,22	1701,04
866,39	1689,98
866,56	1703,91
866,73	1686,30
866,90	1857,10
867,07	1782,55
867,25	1674,01
867,42	1846,04
867,59	1740,36
867,76	1830,47
867,93	1713,33
868,10	1817,37
868,27	1677,70
868,44	1805,08
868,61	1712,92
868,78	1788,70
868,95	1662,54
869,12	1776,41
869,29	1760,02
869,46	1797,71
869,63	1783,37
869,80	1667,87
869,97	1799,75
870,14	1740,36
870,32	1752,65
870,49	1724,39
870,66	1817,37
870,83	1721,93
871,00	1685,89
871,17	1670,32
871,34	1749,78
871,51	1703,09
871,68	1672,78
871,85	1774,36
872,02	1852,59
872,19	1744,05
872,36	1672,78
872,53	1753,88
872,70	1776,41
872,87	1709,64
873,04	1617,90
873,21	1658,04
873,38	1669,91
873,55	1778,87
873,72	1764,53
873,89	1705,14
874,06	1637,15
874,23	1630,59
874,40	1676,47
874,57	1716,61
874,74	1898,06
874,91	1647,80
875,08	1687,94
875,25	1771,49
875,42	1774,36
875,59	1757,98
875,76	1760,02
875,93	1785,01
876,10	1867,75
876,27	1655,58
876,44	1956,63
876,61	1756,34
876,78	1746,10
876,95	1761,66
877,12	1726,44
877,29	1747,74
877,46	1778,87
877,62	1730,53
877,79	1613,80
877,96	1784,19
878,13	1683,43
878,30	1730,12
878,47	1805,90
878,64	1760,02
878,81	1754,70
878,98	1721,52
879,15	1857,92
879,32	1814,91
879,49	1774,36
879,66	1785,42
879,83	1683,43
880,00	1866,93
880,17	1639,19
880,34	1772,72
880,51	1675,24
880,67	1803,85
880,84	1560,14
881,01	1707,19
881,18	1860,37
881,35	1693,67
881,52	1870,61
881,69	1677,70
881,86	1850,13
882,03	1731,35
882,20	1786,24
882,37	1757,57
882,54	1847,27
882,70	1752,65
882,87	1673,60
883,04	1828,43
883,21	1755,52
883,38	1670,32
883,55	1727,26
883,72	1706,78
883,89	1666,64
884,06	1671,55
884,23	1619,12
884,39	1632,64
884,56	1780,50
884,73	1795,66
884,90	1737,50
885,07	1809,59
885,24	1698,18
885,41	1896,83
885,58	1710,05
885,74	1650,25
885,91	1816,96
886,08	1738,73
886,25	1631,41
886,42	1681,79
886,59	1748,56
886,76	1628,14
886,93	1552,36
887,09	1858,33
887,26	1979,98
887,43	1704,73
887,60	1703,50
887,77	1726,03
887,94	1807,13
888,10	1929,19
888,27	1877,17
888,44	1754,70
888,61	1587,99
888,78	1644,93
888,95	1791,15
889,12	1636,74
889,28	1751,01
889,45	1710,46
889,62	1708,01
889,79	1718,66
889,96	1754,29
890,13	1738,32
890,29	1709,23
890,46	1864,88
890,63	1771,49
890,80	1719,88
890,97	1703,50
891,13	1661,72
891,30	1834,16
891,47	1874,71
891,64	1655,17
891,81	1666,64
891,98	1693,67
892,14	1745,28
892,31	1646,98
892,48	1691,62
892,65	1678,52
892,82	1725,62
892,98	1631,00
893,15	1771,49
893,32	1776,00
>>>>>End Processed Spectral Data<<<<<
