SpectraSuite Datei
++++++++++++++++++++++++++++++++++++
Datum: Wed Oct 31 15:48:57 CET 2018
Benutzer: Admin
Dark-Spektrum vorhanden: Ja
Referenz-Spektrum vorhanden: Nein
Zahl der probierten Teilspektren: 1
Spektrometer: USB4F05832
Integrationszeit (usec): 50000 (USB4F05832)
Spektren Durchschnitt berechnet: 80 (USB4F05832)
Boxcar Glttung: 0 (USB4F05832)
Dunkelstromkorrektur: Nein (USB4F05832)
Puls/Lampe aktiviert: Nein (USB4F05832)
Correct for Detector Non-linearity: Nein (USB4F05832)
Streulichtkorrektur: Nein (USB4F05832)
Anzahl Pixel in verarbeitetem Spektrum: 3648
>>>>>Begin Processed Spectral Data<<<<<
177,54	3,35
177,75	3,35
177,97	3,35
178,19	-1,25
178,41	-2,51
178,63	2,84
178,85	2,69
179,07	0,95
179,29	2,02
179,51	4,63
179,73	-11,55
179,95	6,91
180,17	3,94
180,39	2,20
180,61	-1,25
180,83	-4,40
181,05	11,21
181,27	4,66
181,49	142,10
181,71	239,92
181,92	216,62
182,14	223,79
182,36	233,01
182,58	233,88
182,80	228,86
183,02	227,35
183,24	228,07
183,46	226,81
183,68	245,91
183,90	228,25
184,12	225,69
184,34	255,15
184,56	238,61
184,78	241,30
185,00	233,98
185,21	224,53
185,43	221,72
185,65	232,47
185,87	221,87
186,09	235,87
186,31	228,58
186,53	236,28
186,75	223,25
186,97	229,71
187,19	233,65
187,41	233,14
187,63	229,01
187,84	222,05
188,06	225,23
188,28	245,17
188,50	239,77
188,72	237,69
188,94	233,65
189,16	227,63
189,38	233,16
189,60	235,59
189,82	232,16
190,03	245,86
190,25	242,97
190,47	241,10
190,69	231,16
190,91	234,80
191,13	231,19
191,35	244,86
191,57	225,35
191,79	229,68
192,01	233,55
192,22	234,42
192,44	232,47
192,66	227,55
192,88	236,13
193,10	239,38
193,32	238,72
193,54	240,10
193,76	237,03
193,98	243,68
194,19	243,73
194,41	239,74
194,63	239,25
194,85	236,77
195,07	249,88
195,29	259,22
195,51	269,59
195,73	296,29
195,94	293,12
196,16	297,80
196,38	283,95
196,60	261,30
196,82	242,30
197,04	251,93
197,26	235,16
197,48	242,25
197,69	240,99
197,91	234,16
198,13	241,76
198,35	232,60
198,57	238,97
198,79	222,26
199,01	236,00
199,22	223,74
199,44	232,01
199,66	241,43
199,88	242,20
200,10	234,70
200,32	237,59
200,54	245,63
200,75	244,02
200,97	233,37
201,19	245,22
201,41	242,48
201,63	234,65
201,85	249,19
202,06	235,87
202,28	241,15
202,50	236,18
202,72	228,86
202,94	242,17
203,16	238,97
203,38	241,66
203,59	241,38
203,81	241,17
204,03	242,53
204,25	243,63
204,47	240,02
204,69	230,86
204,90	225,71
205,12	221,49
205,34	246,01
205,56	233,19
205,78	240,15
206,00	234,29
206,21	248,14
206,43	242,48
206,65	230,55
206,87	233,80
207,09	235,16
207,30	237,54
207,52	236,05
207,74	236,46
207,96	231,14
208,18	238,90
208,40	243,04
208,61	240,94
208,83	232,67
209,05	237,26
209,27	223,82
209,49	239,95
209,70	238,00
209,92	222,10
210,14	239,33
210,36	235,54
210,58	220,46
210,79	233,65
211,01	228,19
211,23	236,18
211,45	227,68
211,67	239,64
211,88	235,23
212,10	235,75
212,32	234,19
212,54	235,23
212,76	235,62
212,97	232,37
213,19	243,61
213,41	221,16
213,63	231,57
213,85	239,66
214,06	235,62
214,28	230,06
214,50	236,51
214,72	223,43
214,94	239,23
215,15	241,63
215,37	245,45
215,59	242,27
215,81	229,01
216,02	233,29
216,24	233,88
216,46	228,86
216,68	233,34
216,90	233,70
217,11	232,11
217,33	237,33
217,55	239,13
217,77	237,77
217,98	233,95
218,20	225,40
218,42	250,72
218,64	240,97
218,85	224,71
219,07	229,22
219,29	228,60
219,51	232,75
219,73	240,30
219,94	225,87
220,16	234,93
220,38	241,23
220,60	248,83
220,81	232,73
221,03	236,13
221,25	234,11
221,47	234,11
221,68	255,20
221,90	241,05
222,12	237,18
222,34	240,71
222,55	245,30
222,77	242,15
222,99	243,48
223,21	245,65
223,42	235,52
223,64	250,21
223,86	227,20
224,08	238,90
224,29	246,32
224,51	234,77
224,73	233,14
224,94	242,45
225,16	240,48
225,38	226,97
225,60	243,09
225,81	229,50
226,03	236,98
226,25	253,26
226,47	249,90
226,68	233,62
226,90	235,90
227,12	247,80
227,33	246,09
227,55	248,67
227,77	253,82
227,99	263,37
228,20	268,13
228,42	279,68
228,64	294,37
228,86	317,00
229,07	329,57
229,29	337,02
229,51	377,16
229,72	380,10
229,94	362,75
230,16	328,26
230,38	313,75
230,59	278,50
230,81	265,26
231,03	248,11
231,24	246,40
231,46	240,71
231,68	250,93
231,89	252,23
232,11	240,82
232,33	257,05
232,55	236,90
232,76	240,66
232,98	244,45
233,20	250,90
233,41	247,47
233,63	251,00
233,85	237,64
234,06	250,06
234,28	234,52
234,50	240,84
234,71	231,50
234,93	238,87
235,15	222,36
235,37	223,87
235,58	246,63
235,80	232,06
236,02	237,15
236,23	252,74
236,45	245,30
236,67	246,68
236,88	263,06
237,10	248,29
237,32	248,50
237,53	264,50
237,75	246,22
237,97	253,72
238,18	261,27
238,40	256,69
238,62	247,09
238,83	253,26
239,05	246,04
239,27	259,96
239,48	259,50
239,70	264,09
239,92	250,18
240,13	246,83
240,35	243,76
240,57	244,25
240,78	246,29
241,00	239,97
241,22	251,41
241,43	256,30
241,65	246,47
241,87	259,78
242,08	255,28
242,30	247,39
242,52	248,39
242,73	250,85
242,95	251,34
243,16	250,95
243,38	245,32
243,60	251,85
243,81	234,95
244,03	241,40
244,25	251,29
244,46	246,19
244,68	247,06
244,90	244,94
245,11	250,44
245,33	242,07
245,55	246,91
245,76	263,47
245,98	249,75
246,19	250,57
246,41	245,19
246,63	258,97
246,84	238,46
247,06	250,57
247,28	250,49
247,49	251,75
247,71	262,96
247,92	250,39
248,14	257,22
248,36	254,49
248,57	257,76
248,79	251,18
249,01	266,29
249,22	266,42
249,44	259,58
249,65	268,36
249,87	268,18
250,09	270,64
250,30	262,70
250,52	261,47
250,73	255,71
250,95	272,05
251,17	260,04
251,38	254,77
251,60	263,09
251,81	256,99
252,03	249,49
252,25	258,40
252,46	258,48
252,68	268,54
252,89	256,92
253,11	254,72
253,33	257,53
253,54	247,06
253,76	254,90
253,97	257,94
254,19	265,14
254,41	238,36
254,62	258,48
254,84	247,98
255,05	249,62
255,27	266,77
255,49	249,06
255,70	253,00
255,92	254,69
256,13	270,43
256,35	266,59
256,56	248,85
256,78	278,70
257,00	287,15
257,21	299,41
257,43	310,45
257,64	312,14
257,86	294,83
258,08	291,86
258,29	315,98
258,51	290,56
258,72	294,27
258,94	285,44
259,15	283,26
259,37	294,11
259,59	283,00
259,80	296,70
260,02	311,62
260,23	319,82
260,45	326,73
260,66	347,44
260,88	350,92
261,09	354,09
261,31	375,80
261,53	365,49
261,74	377,67
261,96	372,83
262,17	389,14
262,39	365,49
262,60	402,04
262,82	412,56
263,03	427,23
263,25	429,48
263,46	427,77
263,68	436,27
263,90	454,29
264,11	443,54
264,33	460,97
264,54	444,61
264,76	436,73
264,97	452,50
265,19	431,56
265,40	448,94
265,62	431,17
265,83	446,25
266,05	469,70
266,26	468,34
266,48	477,77
266,70	479,17
266,91	469,04
267,13	473,70
267,34	464,50
267,56	457,52
267,77	464,91
267,99	461,79
268,20	463,33
268,42	453,96
268,63	455,70
268,85	471,29
269,06	471,21
269,28	468,47
269,49	482,94
269,71	486,29
269,92	480,20
270,14	475,21
270,35	482,91
270,57	485,55
270,78	494,10
271,00	504,59
271,21	500,32
271,43	505,26
271,64	528,40
271,86	538,18
272,07	527,66
272,29	543,68
272,50	545,86
272,72	546,12
272,93	548,32
273,15	553,69
273,36	576,25
273,58	568,64
273,79	575,61
274,01	572,79
274,22	578,58
274,44	595,06
274,65	587,33
274,87	585,16
275,08	594,40
275,30	596,85
275,51	605,10
275,73	604,92
275,94	600,93
276,16	610,17
276,37	611,34
276,59	628,75
276,80	619,56
277,02	636,12
277,23	632,00
277,45	641,45
277,66	632,72
277,88	648,39
278,09	640,30
278,30	654,76
278,52	659,98
278,73	675,78
278,95	676,39
279,16	668,10
279,38	676,24
279,59	675,37
279,81	705,17
280,02	673,70
280,24	657,58
280,45	644,88
280,67	667,05
280,88	658,52
281,09	638,76
281,31	636,66
281,52	641,73
281,74	651,74
281,95	642,93
282,17	628,09
282,38	659,39
282,60	656,55
282,81	680,36
283,02	700,17
283,24	755,88
283,45	829,35
283,67	908,89
283,88	947,75
284,10	956,79
284,31	909,55
284,53	808,67
284,74	727,39
284,95	654,97
285,17	615,03
285,38	625,45
285,60	603,82
285,81	595,81
286,03	613,03
286,24	607,12
286,45	604,25
286,67	608,12
286,88	598,13
287,10	590,45
287,31	596,14
287,53	576,89
287,74	601,49
287,95	599,08
288,17	596,98
288,38	595,93
288,60	597,78
288,81	600,62
289,02	594,04
289,24	598,62
289,45	593,50
289,67	601,33
289,88	594,76
290,10	581,37
290,31	588,74
290,52	589,48
290,74	605,94
290,95	573,58
291,17	602,23
291,38	590,35
291,59	576,07
291,81	591,12
292,02	579,96
292,24	561,35
292,45	554,23
292,66	568,87
292,88	552,47
293,09	544,40
293,31	534,44
293,52	525,53
293,73	515,29
293,95	530,14
294,16	524,84
294,37	515,78
294,59	510,05
294,80	501,34
295,02	507,36
295,23	490,51
295,44	491,95
295,66	481,50
295,87	474,69
296,09	451,99
296,30	437,70
296,51	426,90
296,73	406,11
296,94	388,83
297,15	367,38
297,37	354,02
297,58	335,35
297,79	330,80
298,01	323,12
298,22	305,51
298,44	314,95
298,65	301,49
298,86	307,14
299,08	303,46
299,29	299,64
299,50	291,91
299,72	306,02
299,93	300,59
300,14	294,88
300,36	304,35
300,57	303,64
300,79	307,25
301,00	296,14
301,21	303,92
301,43	311,96
301,64	310,73
301,85	310,91
302,07	315,36
302,28	310,65
302,49	311,34
302,71	314,80
302,92	338,89
303,13	360,88
303,35	423,08
303,56	530,78
303,77	652,56
303,99	758,82
304,20	788,03
304,41	779,00
304,63	686,68
304,84	568,57
305,05	446,02
305,27	374,86
305,48	340,86
305,69	318,92
305,91	334,31
306,12	326,34
306,33	326,98
306,55	327,01
306,76	314,13
306,97	342,14
307,19	337,61
307,40	344,78
307,61	350,33
307,82	340,27
308,04	358,83
308,25	368,05
308,46	383,23
308,68	380,64
308,89	386,02
309,10	372,04
309,32	360,80
309,53	346,80
309,74	343,98
309,96	338,43
310,17	340,91
310,38	334,02
310,59	338,89
310,81	344,06
311,02	335,33
311,23	343,60
311,45	347,57
311,66	347,21
311,87	326,91
312,09	348,39
312,30	333,84
312,51	343,65
312,72	329,54
312,94	335,87
313,15	344,49
313,36	336,10
313,58	341,75
313,79	340,50
314,00	335,18
314,21	331,49
314,43	337,68
314,64	335,07
314,85	342,39
315,06	336,87
315,28	360,34
315,49	362,57
315,70	361,49
315,92	364,38
316,13	372,91
316,34	359,11
316,55	369,58
316,77	372,81
316,98	388,50
317,19	374,34
317,40	383,35
317,62	389,78
317,83	388,17
318,04	369,10
318,25	389,96
318,47	391,60
318,68	390,96
318,89	385,27
319,11	388,24
319,32	390,68
319,53	405,11
319,74	397,69
319,96	390,75
320,17	395,59
320,38	403,40
320,59	407,14
320,81	408,24
321,02	429,41
321,23	415,79
321,44	409,72
321,65	417,30
321,87	445,38
322,08	447,79
322,29	451,14
322,50	460,49
322,72	478,56
322,93	496,91
323,14	504,93
323,35	510,94
323,57	521,98
323,78	524,46
323,99	531,50
324,20	528,27
324,41	522,51
324,63	530,71
324,84	536,21
325,05	547,47
325,26	538,74
325,48	555,61
325,69	585,95
325,90	590,99
326,11	588,00
326,32	603,31
326,54	616,13
326,75	641,73
326,96	656,94
327,17	672,96
327,39	725,75
327,60	795,51
327,81	920,97
328,02	1194,94
328,23	1825,43
328,45	2924,83
328,66	4780,37
328,87	8102,92
329,08	15047,17
329,29	29732,26
329,51	49644,94
329,72	55113,40
329,93	52647,70
330,14	51601,39
330,35	52075,26
330,56	53535,03
330,78	56356,29
330,99	39453,50
331,20	15618,86
331,41	7906,90
331,62	3806,46
331,84	2030,10
332,05	1273,09
332,26	1000,28
332,47	855,54
332,68	792,15
332,90	756,01
333,11	713,15
333,32	706,83
333,53	684,61
333,74	667,87
333,95	631,57
334,17	619,89
334,38	604,56
334,59	598,67
334,80	578,32
335,01	572,71
335,22	562,19
335,44	562,42
335,65	565,93
335,86	565,32
336,07	547,11
336,28	564,88
336,49	556,64
336,71	573,02
336,92	553,90
337,13	559,15
337,34	552,70
337,55	550,24
337,76	553,90
337,97	544,45
338,19	538,05
338,40	554,15
338,61	543,56
338,82	557,64
339,03	548,16
339,24	556,69
339,45	539,38
339,67	544,89
339,88	542,97
340,09	551,90
340,30	542,66
340,51	529,60
340,72	528,50
340,93	537,21
341,15	553,46
341,36	547,81
341,57	538,59
341,78	556,02
341,99	568,62
342,20	574,48
342,41	571,41
342,62	551,93
342,84	565,67
343,05	538,18
343,26	529,78
343,47	547,55
343,68	529,37
343,89	533,65
344,10	525,79
344,31	529,66
344,53	540,56
344,74	532,22
344,95	527,17
345,16	552,06
345,37	550,72
345,58	550,98
345,79	572,20
346,00	557,10
346,21	560,38
346,42	568,16
346,64	548,06
346,85	540,07
347,06	550,08
347,27	567,11
347,48	566,14
347,69	542,58
347,90	546,37
348,11	545,86
348,32	547,40
348,53	542,97
348,75	567,70
348,96	560,63
349,17	580,70
349,38	565,80
349,59	556,87
349,80	579,65
350,01	574,48
350,22	582,60
350,43	578,06
350,64	581,44
350,85	583,77
351,06	563,58
351,28	565,73
351,49	560,04
351,70	587,90
351,91	562,17
352,12	564,88
352,33	568,72
352,54	572,64
352,75	560,22
352,96	575,10
353,17	576,63
353,38	583,72
353,59	583,70
353,80	604,25
354,01	602,38
354,22	618,59
354,44	644,14
354,65	683,48
354,86	697,46
355,07	735,63
355,28	734,45
355,49	737,68
355,70	726,72
355,91	715,46
356,12	709,16
356,33	714,36
356,54	710,62
356,75	689,42
356,96	684,18
357,17	684,10
357,38	708,37
357,59	737,12
357,80	834,68
358,01	943,81
358,22	1023,37
358,43	1088,73
358,64	1110,61
358,85	1049,51
359,07	970,38
359,28	884,11
359,49	832,60
359,70	774,23
359,91	744,77
360,12	717,79
360,33	702,68
360,54	676,26
360,75	676,01
360,96	655,32
361,17	623,43
361,38	624,66
361,59	646,19
361,80	647,98
362,01	648,11
362,22	643,86
362,43	672,66
362,64	690,09
362,85	691,93
363,06	683,05
363,27	687,48
363,48	674,78
363,69	690,27
363,90	664,54
364,11	689,78
364,32	695,23
364,53	692,34
364,74	685,35
364,95	696,77
365,16	677,47
365,37	685,76
365,58	668,97
365,79	678,57
366,00	674,45
366,21	677,37
366,42	676,52
366,63	689,78
366,84	679,21
367,05	679,18
367,26	670,61
367,47	672,96
367,68	664,59
367,89	655,94
368,10	636,15
368,31	637,89
368,52	642,96
368,73	684,28
368,94	663,52
369,15	658,93
369,36	677,11
369,57	662,39
369,78	660,98
369,99	665,28
370,20	668,05
370,40	680,13
370,61	670,35
370,82	683,43
371,03	686,02
371,24	688,60
371,45	680,08
371,66	679,67
371,87	688,73
372,08	712,13
372,29	704,32
372,50	683,94
372,71	703,07
372,92	695,90
373,13	692,24
373,34	706,40
373,55	709,39
373,76	714,89
373,97	702,43
374,18	719,84
374,39	719,76
374,60	716,43
374,81	714,72
375,01	706,73
375,22	733,15
375,43	727,21
375,64	748,20
375,85	742,85
376,06	750,55
376,27	756,95
376,48	765,99
376,69	726,34
376,90	737,19
377,11	735,60
377,32	732,99
377,53	729,87
377,74	741,21
377,94	742,88
378,15	742,16
378,36	715,84
378,57	733,63
378,78	723,68
378,99	739,91
379,20	753,32
379,41	742,57
379,62	737,60
379,83	753,09
380,04	737,68
380,25	738,09
380,45	724,19
380,66	732,46
380,87	711,93
381,08	704,32
381,29	719,50
381,50	698,41
381,71	708,52
381,92	713,13
382,13	716,30
382,34	712,92
382,55	733,17
382,75	764,94
382,96	764,12
383,17	782,07
383,38	744,18
383,59	743,62
383,80	743,13
384,01	724,70
384,22	726,88
384,43	736,60
384,63	696,26
384,84	727,16
385,05	706,06
385,26	716,33
385,47	714,08
385,68	727,05
385,89	722,88
386,10	735,12
386,30	753,17
386,51	764,66
386,72	768,47
386,93	772,57
387,14	770,06
387,35	762,95
387,56	758,39
387,77	743,03
387,97	752,14
388,18	784,22
388,39	745,79
388,60	774,39
388,81	780,02
389,02	795,12
389,23	787,85
389,43	781,15
389,64	770,63
389,85	762,95
390,06	750,45
390,27	774,64
390,48	742,80
390,69	755,21
390,89	768,65
391,10	773,70
391,31	809,66
391,52	866,32
391,73	950,59
391,94	970,10
392,14	989,17
392,35	994,78
392,56	969,38
392,77	916,70
392,98	856,90
393,19	838,98
393,39	844,40
393,60	934,56
393,81	1091,39
394,02	1219,46
394,23	1392,57
394,44	1450,47
394,64	1445,02
394,85	1366,05
395,06	1145,40
395,27	999,36
395,48	909,07
395,69	810,87
395,89	797,81
396,10	771,75
396,31	753,06
396,52	763,33
396,73	771,14
396,93	777,72
397,14	758,49
397,35	783,27
397,56	766,30
397,77	765,38
397,97	772,78
398,18	760,18
398,39	761,20
398,60	749,51
398,81	748,10
399,01	776,36
399,22	754,09
399,43	777,05
399,64	766,09
399,85	775,90
400,05	766,84
400,26	766,43
400,47	758,87
400,68	764,63
400,89	747,89
401,09	750,30
401,30	771,06
401,51	750,45
401,72	764,87
401,93	808,85
402,13	782,27
402,34	778,18
402,55	802,34
402,76	831,76
402,96	904,02
403,17	1030,85
403,38	1319,66
403,59	1589,02
403,80	1929,24
404,00	2034,17
404,21	2006,83
404,42	1861,04
404,63	1612,39
404,83	1342,60
405,04	1077,21
405,25	974,96
405,46	888,26
405,66	822,05
405,87	816,35
406,08	808,97
406,29	816,81
406,49	797,02
406,70	801,06
406,91	794,84
407,12	843,35
407,32	832,60
407,53	844,45
407,74	855,21
407,95	881,32
408,15	958,65
408,36	1058,54
408,57	1177,02
408,78	1263,01
408,98	1293,42
409,19	1280,39
409,40	1249,64
409,61	1151,32
409,81	1063,38
410,02	977,16
410,23	923,33
410,44	904,20
410,64	849,88
410,85	832,24
411,06	844,58
411,26	834,39
411,47	843,61
411,68	854,46
411,89	830,50
412,09	871,69
412,30	879,81
412,51	878,99
412,72	902,67
412,92	918,08
413,13	896,27
413,34	884,06
413,54	877,09
413,75	886,64
413,96	914,42
414,17	1010,98
414,37	1307,22
414,58	1999,46
414,79	3127,27
414,99	4163,11
415,20	5291,62
415,41	5930,33
415,61	5923,75
415,82	5197,87
416,03	4063,09
416,24	3087,65
416,44	2321,55
416,65	1749,68
416,86	1455,52
417,06	1360,85
417,27	1434,35
417,48	1592,63
417,68	1838,08
417,89	2157,20
418,10	2399,25
418,30	2822,82
418,51	3332,79
418,72	4102,36
418,92	5377,33
419,13	6117,87
419,34	7063,91
419,55	7230,58
419,75	6949,50
419,96	5807,37
420,17	4593,98
420,37	3212,67
420,58	2196,83
420,79	1568,87
420,99	1267,08
421,20	1054,50
421,41	959,06
421,61	913,85
421,82	894,58
422,03	903,28
422,23	883,24
422,44	892,76
422,65	899,49
422,85	896,14
423,06	894,91
423,26	918,21
423,47	937,87
423,68	926,50
423,88	1000,05
424,09	1047,84
424,30	1139,49
424,50	1324,29
424,71	1615,21
424,92	1910,58
425,12	2249,92
425,33	2678,13
425,54	3006,03
425,74	3234,77
425,95	3297,59
426,15	3589,94
426,36	3438,72
426,57	3572,30
426,77	3287,12
426,98	2999,51
427,19	2466,52
427,39	2030,28
427,60	1552,05
427,81	1314,10
428,01	1117,27
428,22	1067,25
428,42	1017,35
428,63	1145,79
428,84	1366,99
429,04	1636,61
429,25	1902,69
429,45	2058,72
429,66	2154,36
429,87	2030,05
430,07	1751,01
430,28	1472,18
430,49	1268,64
430,69	1141,87
430,90	1032,46
431,10	977,27
431,31	981,57
431,52	1010,60
431,72	1031,46
431,93	1136,26
432,13	1394,74
432,34	1771,13
432,55	2058,03
432,75	2495,40
432,96	2586,89
433,16	2530,14
433,37	2399,22
433,58	2174,94
433,78	1894,29
433,99	1641,83
434,19	1578,16
434,40	1404,86
434,60	1260,58
434,81	1128,05
435,02	1053,30
435,22	995,59
435,43	953,66
435,63	945,57
435,84	933,34
436,05	955,17
436,25	908,68
436,46	946,78
436,66	950,62
436,87	941,89
437,07	926,68
437,28	949,90
437,48	973,58
437,69	968,05
437,90	1003,48
438,10	1036,12
438,31	1069,32
438,51	1135,29
438,72	1109,36
438,92	1077,90
439,13	1076,67
439,34	1024,68
439,54	980,34
439,75	945,68
439,95	922,97
440,16	925,63
440,36	928,70
440,57	915,34
440,77	937,92
440,98	916,72
441,18	930,16
441,39	930,96
441,60	979,65
441,80	977,19
442,01	953,28
442,21	972,07
442,42	952,38
442,62	962,03
442,83	940,22
443,03	939,17
443,24	945,09
443,44	914,70
443,65	924,97
443,85	905,33
444,06	919,41
444,26	903,33
444,47	919,26
444,67	937,15
444,88	918,00
445,09	926,30
445,29	940,45
445,50	924,63
445,70	922,69
445,91	917,46
446,11	899,24
446,32	917,18
446,52	928,32
446,73	944,88
446,93	923,63
447,14	931,31
447,34	940,76
447,55	914,70
447,75	929,85
447,96	961,62
448,16	999,69
448,37	1106,44
448,57	1213,22
448,78	1372,50
448,98	1476,66
449,19	1525,79
449,39	1547,55
449,60	1477,23
449,80	1478,33
450,01	1509,48
450,21	1545,96
450,42	1617,92
450,62	1613,75
450,83	1585,84
451,03	1501,72
451,23	1430,92
451,44	1360,85
451,64	1318,94
451,85	1254,10
452,05	1215,62
452,26	1144,64
452,46	1128,02
452,67	1059,16
452,87	1053,73
453,08	1039,27
453,28	1064,97
453,49	1121,16
453,69	1193,86
453,90	1458,87
454,10	2099,55
454,31	2862,63
454,51	3683,53
454,71	4339,03
454,92	4652,50
455,12	4444,42
455,33	3990,88
455,53	3244,11
455,74	2593,70
455,94	2038,86
456,15	1681,72
456,35	1390,88
456,55	1186,59
456,76	1109,41
456,96	1072,78
457,17	1042,54
457,37	1100,37
457,58	1086,32
457,78	1117,60
457,99	1139,67
458,19	1171,41
458,39	1305,50
458,60	1430,20
458,80	1506,08
459,01	1536,59
459,21	1548,42
459,42	1551,57
459,62	1431,79
459,82	1373,34
460,03	1273,15
460,23	1208,97
460,44	1144,48
460,64	1071,55
460,85	1092,87
461,05	1070,24
461,25	1043,57
461,46	1115,61
461,66	1100,86
461,87	1147,27
462,07	1178,79
462,27	1191,18
462,48	1202,08
462,68	1204,15
462,89	1194,94
463,09	1173,43
463,29	1157,03
463,50	1135,04
463,70	1138,01
463,91	1108,34
464,11	1121,37
464,31	1116,91
464,52	1137,29
464,72	1173,97
464,93	1212,35
465,13	1416,40
465,33	1780,56
465,54	2340,27
465,74	3140,51
465,95	3904,73
466,15	4488,07
466,35	4604,83
466,56	4255,32
466,76	3609,57
466,96	2887,51
467,17	2276,01
467,37	1837,26
467,58	1566,39
467,78	1364,23
467,98	1227,94
468,19	1156,13
468,39	1165,58
468,59	1165,42
468,80	1190,79
469,00	1252,56
469,21	1313,93
469,41	1417,12
469,61	1500,70
469,82	1475,38
470,02	1506,33
470,22	1472,44
470,43	1388,32
470,63	1337,99
470,83	1345,67
471,04	1297,75
471,24	1284,10
471,45	1266,82
471,65	1253,64
471,85	1210,96
472,06	1238,41
472,26	1239,23
472,46	1230,68
472,67	1232,52
472,87	1237,82
473,07	1231,70
473,28	1255,07
473,48	1349,74
473,68	1461,97
473,89	1677,57
474,09	1947,62
474,29	2165,98
474,50	2352,50
474,70	2364,02
474,90	2276,11
475,11	2093,92
475,31	1879,60
475,51	1707,16
475,72	1591,60
475,92	1523,51
476,12	1482,19
476,33	1488,69
476,53	1462,94
476,73	1423,57
476,93	1413,79
477,14	1392,87
477,34	1365,56
477,54	1375,67
477,75	1375,70
477,95	1369,60
478,15	1381,76
478,36	1380,82
478,56	1383,12
478,76	1413,28
478,97	1406,98
479,17	1416,78
479,37	1406,80
479,57	1409,62
479,78	1410,90
479,98	1419,14
480,18	1416,48
480,39	1408,03
480,59	1401,30
480,79	1416,84
480,99	1380,64
481,20	1390,49
481,40	1397,43
481,60	1400,50
481,81	1408,90
482,01	1434,14
482,21	1457,44
482,41	1461,12
482,62	1490,38
482,82	1506,56
483,02	1552,41
483,23	1553,23
483,43	1557,94
483,63	1532,26
483,83	1525,20
484,04	1543,07
484,24	1508,61
484,44	1522,00
484,64	1504,92
484,85	1522,61
485,05	1518,82
485,25	1546,40
485,45	1540,81
485,66	1547,16
485,86	1555,51
486,06	1556,89
486,26	1583,23
486,47	1609,14
486,67	1681,05
486,87	1766,86
487,07	1846,19
487,28	1916,62
487,48	2001,53
487,68	2077,00
487,88	2074,18
488,09	2100,32
488,29	2071,88
488,49	2023,55
488,69	1952,02
488,90	1895,42
489,10	1836,57
489,30	1808,18
489,50	1787,80
489,71	1757,62
489,91	1759,38
490,11	1705,39
490,31	1688,27
490,52	1688,55
490,72	1673,19
490,92	1693,36
491,12	1687,88
491,32	1691,60
491,53	1714,12
491,73	1795,58
491,93	2174,35
492,13	2973,83
492,33	4019,63
492,54	5061,99
492,74	5927,13
492,94	6189,91
493,14	5956,95
493,35	5106,64
493,55	4210,24
493,75	3434,52
493,95	2856,74
494,15	2477,20
494,36	2221,97
494,56	1965,69
494,76	1892,27
494,96	1834,31
495,16	1848,45
495,37	1854,18
495,57	1873,07
495,77	1887,54
495,97	1911,01
496,17	2182,34
496,37	3208,91
496,58	5913,54
496,78	10681,18
496,98	18268,34
497,18	26944,02
497,38	34297,05
497,59	38594,87
497,79	38411,68
497,99	34289,29
498,19	27440,04
498,39	19944,37
498,59	13879,95
498,80	9579,60
499,00	6710,76
499,20	4746,78
499,40	3382,09
499,60	2607,96
499,80	2203,56
500,01	2024,29
500,21	1921,30
500,41	1899,36
500,61	1880,29
500,81	1853,54
501,01	1825,23
501,22	1826,43
501,42	1775,15
501,62	1765,78
501,82	1765,94
502,02	1770,03
502,22	1764,89
502,42	1778,56
502,63	1842,25
502,83	1833,98
503,03	1864,45
503,23	1873,66
503,43	1847,17
503,63	1854,85
503,83	1870,28
504,04	1872,59
504,24	1888,10
504,44	1890,07
504,64	1930,03
504,84	1941,88
505,04	1959,85
505,24	2019,30
505,44	2019,53
505,65	1999,82
505,85	1974,63
506,05	1940,86
506,25	1909,01
506,45	1889,92
506,65	1892,43
506,85	1894,40
507,05	1906,63
507,26	1905,99
507,46	1923,27
507,66	1918,20
507,86	1887,56
508,06	1920,05
508,26	1901,49
508,46	1914,34
508,66	1936,46
508,86	1973,70
509,06	2015,79
509,27	2044,08
509,47	2072,80
509,67	2102,44
509,87	2089,67
510,07	2071,26
510,27	2046,97
510,47	2015,18
510,67	2009,67
510,87	1997,08
511,07	2008,70
511,28	2019,66
511,48	2004,19
511,68	2032,94
511,88	2021,17
512,08	2011,44
512,28	2017,43
512,48	2013,15
512,68	2044,59
512,88	2046,89
513,08	2088,06
513,28	2196,98
513,48	2625,27
513,68	3476,30
513,89	4927,26
514,09	6865,23
514,29	9183,86
514,49	10709,98
514,69	11430,61
514,89	11179,45
515,09	9949,65
515,29	8249,27
515,49	6507,40
515,69	5138,17
515,89	4222,53
516,09	3535,13
516,29	3014,66
516,49	2670,09
516,69	2440,10
516,89	2317,43
517,09	2276,14
517,29	2284,18
517,50	2358,93
517,70	2451,32
517,90	2539,46
518,10	2591,27
518,30	2679,46
518,50	2641,14
518,70	2574,60
518,90	2497,70
519,10	2423,13
519,30	2356,11
519,50	2301,61
519,70	2295,57
519,90	2289,73
520,10	2325,93
520,30	2317,15
520,50	2325,31
520,70	2356,24
520,90	2433,40
521,10	2499,29
521,30	2557,66
521,50	2625,65
521,70	2635,56
521,90	2599,59
522,10	2552,51
522,30	2413,15
522,50	2371,62
522,70	2320,71
522,90	2303,63
523,10	2242,65
523,30	2296,46
523,50	2291,37
523,70	2309,62
523,90	2367,14
524,10	2417,96
524,30	2433,52
524,50	2503,36
524,70	2547,95
524,90	2537,48
525,10	2534,31
525,30	2517,95
525,50	2481,60
525,70	2461,45
525,90	2416,24
526,10	2389,93
526,30	2399,99
526,50	2395,48
526,70	2367,78
526,90	2408,16
527,10	2373,70
527,30	2419,50
527,50	2454,70
527,70	2418,09
527,90	2424,44
528,10	2410,02
528,30	2384,22
528,50	2365,48
528,70	2334,02
528,90	2369,24
529,10	2349,92
529,30	2339,78
529,50	2362,36
529,70	2367,43
529,90	2399,12
530,10	2427,74
530,29	2456,95
530,49	2498,62
530,69	2504,46
530,89	2528,29
531,09	2507,05
531,29	2496,22
531,49	2511,24
531,69	2492,84
531,89	2495,17
532,09	2497,14
532,29	2462,40
532,49	2451,93
532,69	2450,98
532,89	2457,13
533,09	2441,51
533,29	2494,73
533,49	2499,49
533,68	2483,01
533,88	2556,68
534,08	2536,79
534,28	2523,28
534,48	2530,85
534,68	2548,88
534,88	2540,79
535,08	2550,59
535,28	2568,02
535,48	2589,61
535,68	2589,40
535,88	2602,28
536,08	2668,73
536,27	2662,00
536,47	2630,64
536,67	2710,38
536,87	2696,33
537,07	2662,72
537,27	2683,63
537,47	2686,58
537,67	2680,92
537,87	2705,14
538,07	2742,49
538,27	2733,91
538,46	2781,45
538,66	2773,33
538,86	2748,63
539,06	2774,51
539,26	2758,67
539,46	2732,07
539,66	2736,78
539,86	2732,76
540,06	2753,60
540,25	2733,14
540,45	2779,66
540,65	2799,42
540,85	2853,38
541,05	2947,72
541,25	2940,29
541,45	2928,95
541,65	2898,31
541,85	2910,88
542,04	2887,18
542,24	2851,98
542,44	2826,66
542,64	2887,20
542,84	2918,69
543,04	2946,54
543,24	2950,61
543,43	3043,92
543,63	3067,01
543,83	3100,47
544,03	3106,77
544,23	3184,00
544,43	3245,44
544,63	3250,79
544,82	3285,04
545,02	3276,24
545,22	3283,71
545,42	3174,35
545,62	3187,89
545,82	3135,11
546,02	3101,24
546,21	3031,48
546,41	3030,28
546,61	2968,86
546,81	3030,28
547,01	2987,65
547,21	3046,33
547,40	3083,22
547,60	3085,93
547,80	3090,26
548,00	3184,26
548,20	3338,45
548,40	3530,31
548,59	3785,41
548,79	3977,18
548,99	4127,63
549,19	4151,10
549,39	4169,36
549,59	4126,76
549,78	4007,36
549,98	3988,80
550,18	3926,14
550,38	3849,44
550,58	3804,79
550,77	3782,91
550,97	3717,88
551,17	3692,56
551,37	3753,98
551,57	3761,91
551,76	3852,84
551,96	3915,20
552,16	3942,31
552,36	4045,92
552,56	4099,19
552,75	4154,13
552,95	4176,73
553,15	4217,69
553,35	4245,49
553,55	4243,49
553,74	4289,73
553,94	4195,57
554,14	4249,97
554,34	4345,66
554,54	4485,15
554,73	4675,74
554,93	4881,87
555,13	5090,58
555,33	5155,99
555,53	5198,44
555,72	5143,91
555,92	5068,26
556,12	5080,52
556,32	5057,43
556,51	5154,53
556,71	5211,93
556,91	5247,95
557,11	5319,32
557,30	5401,42
557,50	5436,41
557,70	5436,87
557,90	5551,30
558,10	5664,45
558,29	5702,52
558,49	5809,37
558,69	5828,57
558,89	5955,70
559,08	6178,95
559,28	6394,01
559,48	6544,23
559,68	6827,03
559,87	7049,65
560,07	7200,02
560,27	7263,15
560,47	7275,23
560,66	7191,31
560,86	7111,06
561,06	7048,60
561,25	7096,47
561,45	7133,23
561,65	7160,21
561,85	7160,67
562,04	7260,43
562,24	7330,91
562,44	7514,97
562,64	7623,72
562,83	7843,54
563,03	8036,95
563,23	8389,94
563,42	8765,61
563,62	9403,73
563,82	9910,04
564,02	10530,86
564,21	11060,70
564,41	11550,88
564,61	11912,65
564,80	12350,10
565,00	12702,53
565,20	13082,76
565,40	13373,26
565,59	13879,19
565,79	14280,10
565,99	14863,24
566,18	15419,92
566,38	16194,44
566,58	18973,30
566,78	30924,87
566,97	53594,09
567,17	49497,10
567,37	47754,97
567,56	46656,59
567,76	46108,25
567,96	46053,13
568,15	46082,47
568,35	46692,82
568,55	47782,03
568,74	49035,16
568,94	50050,41
569,14	51009,50
569,33	51472,72
569,53	51559,23
569,73	51920,41
569,92	52285,15
570,12	52346,72
570,32	52356,86
570,52	52362,31
570,71	52379,16
570,91	52623,61
571,11	52971,27
571,30	52927,86
571,50	52935,77
571,70	53145,69
571,89	53600,87
572,09	54348,51
572,28	59879,74
572,48	60224,77
572,68	60220,21
572,87	60166,17
573,07	60157,96
573,27	60150,74
573,46	60125,55
573,66	60138,06
573,86	60153,22
574,05	60137,12
574,25	60151,86
574,45	60163,43
574,64	60152,73
574,84	60170,50
575,04	60294,20
575,23	60328,47
575,43	60373,58
575,62	60392,40
575,82	45015,74
576,02	56192,99
576,21	25221,35
576,41	25417,03
576,61	25760,71
576,80	25882,05
577,00	26242,42
577,19	26519,56
577,39	27091,38
577,59	27287,49
577,78	27632,96
577,98	28224,39
578,18	28645,04
578,37	29091,29
578,57	29640,12
578,76	29942,63
578,96	30268,98
579,16	30888,64
579,35	31738,52
579,55	32193,84
579,74	33205,84
579,94	34162,93
580,14	35463,75
580,33	36681,58
580,53	37597,94
580,72	38476,57
580,92	39624,89
581,12	40374,37
581,31	41601,00
581,51	43052,73
581,70	44220,79
581,90	46077,22
582,10	47587,32
582,29	49839,83
582,49	51485,27
582,68	53824,18
582,88	55996,25
583,07	55996,92
583,27	54957,19
583,47	53446,48
583,66	51617,36
583,86	50139,98
584,05	49497,46
584,25	48973,59
584,44	48557,19
584,64	48345,32
584,84	48365,67
585,03	48494,95
585,23	48807,24
585,42	49100,10
585,62	49354,95
585,81	49419,00
586,01	49410,73
586,20	49174,80
586,40	48825,93
586,60	47932,68
586,79	46156,20
586,99	45612,92
587,18	45551,87
587,38	45461,53
587,57	45240,14
587,77	45180,06
587,96	45175,45
588,16	45159,89
588,35	45184,13
588,55	45111,02
588,75	45178,75
588,94	45152,18
589,14	45199,69
589,33	45159,20
589,53	45193,45
589,72	45444,63
589,92	45478,88
590,11	45519,08
590,31	45571,27
590,50	45599,02
590,70	45599,15
590,89	45609,77
591,09	45625,03
591,28	45590,73
591,48	45633,51
591,67	45593,01
591,87	45641,01
592,06	45624,06
592,26	45628,82
592,45	45624,11
592,65	45614,72
592,84	45639,67
593,04	45628,95
593,23	45614,05
593,43	45641,36
593,62	45618,20
593,82	45618,56
594,01	45629,69
594,21	45618,53
594,40	45623,19
594,60	45644,15
594,79	45619,60
594,99	45614,72
595,18	45630,77
595,38	45615,79
595,57	45614,43
595,77	45617,04
595,96	45617,86
596,16	45626,00
596,35	45624,19
596,55	45624,11
596,74	45611,52
596,94	45628,18
597,13	45614,25
597,33	45631,43
597,52	45616,05
597,72	45633,30
597,91	45594,65
598,11	45638,01
598,30	45626,70
598,50	45626,54
598,69	45626,06
598,88	45631,59
599,08	45625,83
599,27	45629,87
599,47	45636,88
599,66	45614,84
599,86	45620,22
600,05	45626,80
600,25	45619,07
600,44	45615,02
600,64	45604,24
600,83	45628,95
601,02	45598,79
601,22	45622,70
601,41	45611,31
601,61	45628,79
601,80	45614,92
602,00	45626,54
602,19	45628,31
602,38	45630,00
602,58	45629,03
602,77	45632,92
602,97	45643,13
603,16	45629,51
603,36	45616,17
603,55	45620,37
603,74	45631,30
603,94	45637,70
604,13	45610,34
604,33	45635,37
604,52	45636,40
604,72	45634,04
604,91	45623,70
605,10	45642,47
605,30	45632,94
605,49	45610,24
605,69	45611,46
605,88	45624,98
606,07	45609,13
606,27	45602,38
606,46	45614,64
606,66	45625,49
606,85	46010,05
607,04	46417,75
607,24	46415,39
607,43	46401,72
607,63	46425,10
607,82	46412,81
608,01	46412,65
608,21	46417,21
608,40	46401,24
608,60	46422,31
608,79	46403,59
608,98	46416,29
609,18	46394,48
609,37	46375,02
609,57	46395,27
609,76	46375,69
609,95	46398,01
610,15	46374,28
610,34	46361,28
610,53	46390,95
610,73	46364,32
610,92	46369,88
611,11	46368,55
611,31	46362,40
611,50	46381,91
611,70	46370,67
611,89	46380,53
612,08	46379,25
612,28	46391,36
612,47	46669,62
612,66	46395,17
612,86	47930,48
613,05	46953,01
613,24	49239,42
613,44	48689,41
613,63	50209,59
613,82	50021,07
614,02	50147,28
614,21	50055,20
614,41	49924,95
614,60	50276,94
614,79	50185,81
614,99	50013,91
615,18	49938,54
615,37	49992,66
615,57	50215,35
615,76	50472,16
615,95	50693,88
616,15	50894,12
616,34	50984,28
616,53	51019,41
616,73	51060,98
616,92	51129,05
617,11	51081,41
617,30	51854,98
617,50	51862,07
617,69	51845,35
617,88	51854,95
618,08	51848,14
618,27	51885,54
618,46	51876,43
618,66	51883,57
618,85	51889,10
619,04	51868,88
619,24	51850,47
619,43	51866,98
619,62	52057,62
619,82	51885,65
620,01	52656,91
620,20	52470,44
620,39	52646,77
620,59	52633,64
620,78	52640,73
620,97	52632,57
621,17	52634,90
621,36	52647,59
621,55	52659,50
621,74	52661,95
621,94	52679,49
622,13	52623,15
622,32	52657,78
622,52	52673,60
622,71	52647,82
622,90	52642,58
623,09	52661,19
623,29	52670,53
623,48	52657,81
623,67	52677,90
623,86	52648,92
624,06	52692,42
624,25	53305,71
624,44	52641,76
624,64	53401,58
624,83	53436,75
625,02	53421,21
625,21	53401,40
625,41	53423,95
625,60	53434,47
625,79	53453,62
625,98	53448,02
626,18	53432,84
626,37	53418,42
626,56	53576,78
626,75	53439,82
626,95	54183,54
627,14	53449,55
627,33	54183,42
627,52	54100,50
627,72	54190,05
627,91	54165,91
628,10	54287,71
628,29	54188,00
628,49	54936,07
628,68	54172,64
628,87	55380,76
629,06	54922,58
629,25	57989,26
629,45	55010,85
629,64	60518,17
629,83	57498,18
630,02	63109,77
630,22	60619,62
630,41	63130,99
630,60	63114,71
630,79	63152,21
630,98	63153,90
631,18	63177,51
631,37	63206,25
631,56	63177,43
631,75	63159,48
631,94	63199,24
632,14	63207,82
632,33	63211,58
632,52	63243,73
632,71	62997,23
632,90	63203,62
633,10	63211,76
633,29	63227,40
633,48	63224,69
633,67	63221,51
633,86	63202,47
634,06	63236,16
634,25	63212,68
634,44	63209,76
634,63	63243,19
634,82	63257,74
635,02	63253,41
635,21	63268,92
635,40	63266,62
635,59	63278,96
635,78	63232,11
635,97	63255,84
636,17	63256,92
636,36	63240,64
636,55	63251,49
636,74	63274,86
636,93	63278,68
637,12	63267,11
637,32	63257,10
637,51	63286,25
637,70	63238,59
637,89	63265,36
638,08	63276,60
638,27	63260,96
638,47	63287,64
638,66	63288,86
638,85	52283,00
639,04	63328,31
639,23	34087,36
639,42	52258,27
639,62	13687,96
639,81	34933,23
640,00	5181,28
640,19	15174,09
640,38	5495,14
640,57	5892,39
640,76	6046,53
640,95	6291,67
641,15	6305,41
641,34	6196,39
641,53	5954,75
641,72	5662,33
641,91	5489,66
642,10	5292,10
642,29	5152,51
642,49	5090,92
642,68	4940,34
642,87	4918,58
643,06	4841,83
643,25	4791,94
643,44	4708,38
643,63	4680,58
643,82	4661,18
644,01	4655,19
644,21	4623,65
644,40	4614,69
644,59	4564,18
644,78	4564,49
644,97	4520,10
645,16	4549,41
645,35	4489,48
645,54	4516,21
645,73	4460,68
645,92	4493,55
646,12	4460,07
646,31	4410,97
646,50	4405,62
646,69	4447,70
646,88	4403,75
647,07	4370,47
647,26	4366,12
647,45	4314,40
647,64	4291,90
647,83	4311,95
648,02	4279,90
648,22	4348,66
648,41	4456,23
648,60	4587,25
648,79	4715,73
648,98	4860,73
649,17	4901,89
649,36	4895,08
649,55	4737,64
649,74	4592,90
649,93	4456,76
650,12	4378,07
650,31	4283,25
650,50	4180,19
650,69	4153,97
650,88	4122,84
651,08	4024,23
651,27	4031,27
651,46	3965,71
651,65	3955,70
651,84	3881,80
652,03	3882,77
652,22	3852,31
652,41	3818,23
652,60	3838,48
652,79	3839,15
652,98	3814,34
653,17	3799,72
653,36	3776,51
653,55	3762,14
653,74	3730,61
653,93	3708,74
654,12	3660,80
654,31	3655,06
654,50	3644,49
654,69	3617,02
654,88	3619,02
655,07	3649,81
655,26	3611,23
655,45	3668,94
655,64	3665,94
655,83	3677,33
656,02	3632,58
656,21	3606,65
656,40	3562,72
656,59	3551,59
656,78	3493,99
656,97	3473,23
657,17	3447,50
657,36	3423,18
657,55	3370,29
657,74	3372,34
657,93	3353,65
658,12	3355,06
658,31	3343,87
658,50	3373,57
658,69	3337,45
658,87	3384,24
659,06	3342,11
659,25	3370,80
659,44	3395,07
659,63	3414,25
659,82	3443,51
660,01	3397,66
660,20	3413,12
660,39	3329,74
660,58	3279,69
660,77	3214,49
660,96	3173,81
661,15	3127,25
661,34	3126,74
661,53	3079,99
661,72	3051,45
661,91	3075,33
662,10	3018,91
662,29	3015,10
662,48	2983,30
662,67	3011,61
662,86	2981,41
663,05	2984,07
663,24	2994,57
663,43	2965,33
663,62	2950,92
663,81	2940,12
664,00	2942,65
664,19	2893,70
664,38	2873,56
664,57	2846,88
664,76	2869,38
664,94	2893,55
665,13	2895,67
665,32	2916,41
665,51	2983,76
665,70	2972,63
665,89	2972,99
666,08	2943,57
666,27	3049,81
666,46	3271,09
666,65	3534,08
666,84	3815,62
667,03	4032,32
667,22	4087,54
667,41	4038,21
667,60	3809,35
667,78	3552,92
667,97	3334,17
668,16	3156,38
668,35	3008,75
668,54	2883,57
668,73	2828,58
668,92	2738,54
669,11	2686,50
669,30	2643,19
669,49	2602,69
669,68	2585,92
669,86	2566,41
670,05	2538,74
670,24	2526,09
670,43	2513,83
670,62	2465,81
670,81	2487,21
671,00	2461,99
671,19	2443,64
671,38	2425,54
671,57	2430,40
671,75	2397,61
671,94	2361,08
672,13	2338,63
672,32	2342,52
672,51	2303,02
672,70	2300,36
672,89	2284,30
673,08	2262,21
673,26	2255,04
673,45	2238,33
673,64	2286,25
673,83	2475,33
674,02	2889,97
674,21	3396,07
674,40	3856,22
674,59	4253,86
674,77	4430,01
674,96	4281,84
675,15	4001,76
675,34	3613,26
675,53	3271,91
675,72	3007,65
675,91	2846,91
676,09	2680,84
676,28	2557,12
676,47	2406,03
676,66	2280,54
676,85	2196,78
677,04	2134,01
677,22	2071,78
677,41	2031,87
677,60	2035,45
677,79	1992,98
677,98	1963,90
678,17	1959,78
678,36	1940,89
678,54	1935,43
678,73	1911,75
678,92	1899,95
679,11	1901,33
679,30	1881,11
679,48	1875,15
679,67	1859,43
679,86	1889,71
680,05	1871,41
680,24	1843,99
680,43	1832,98
680,61	1852,00
680,80	1845,02
680,99	1828,25
681,18	1843,56
681,37	1834,54
681,55	1861,60
681,74	1818,03
681,93	1830,63
682,12	1820,21
682,31	1796,32
682,49	1782,60
682,68	1766,45
682,87	1761,43
683,06	1730,66
683,25	1730,15
683,43	1749,86
683,62	1734,19
683,81	1739,93
684,00	1732,74
684,19	1738,52
684,37	1739,88
684,56	1734,25
684,75	1722,96
684,94	1708,83
685,12	1721,73
685,31	1714,25
685,50	1762,97
685,69	1972,17
685,88	2285,02
686,06	2722,49
686,25	3103,88
686,44	3442,43
686,63	3552,48
686,81	3486,31
687,00	3237,22
687,19	2933,02
687,38	2690,08
687,56	2526,60
687,75	2403,39
687,94	2301,66
688,13	2208,50
688,31	2113,45
688,50	2021,27
688,69	1946,18
688,88	1897,26
689,06	1835,70
689,25	1801,96
689,44	1809,59
689,63	1780,48
689,81	1765,37
690,00	1750,17
690,19	1716,10
690,38	1691,14
690,56	1661,82
690,75	1632,46
690,94	1596,75
691,13	1585,56
691,31	1601,46
691,50	1593,65
691,69	1631,74
691,87	1669,12
692,06	1721,86
692,25	1842,05
692,44	2009,47
692,62	2210,73
692,81	2408,87
693,00	2552,87
693,18	2617,56
693,37	2606,48
693,56	2491,12
693,75	2358,39
693,93	2260,32
694,12	2215,75
694,31	2215,11
694,49	2254,30
694,68	2808,71
694,87	6309,64
695,05	19805,42
695,24	45281,15
695,43	49622,28
695,62	48857,55
695,80	48793,06
695,99	49401,59
696,18	50304,13
696,36	51206,18
696,55	52161,48
696,74	53030,67
696,92	54954,30
697,11	59445,21
697,30	61103,25
697,48	61939,30
697,67	62545,30
697,86	62954,66
698,04	50431,41
698,23	37151,23
698,42	22761,82
698,60	5576,18
698,79	3186,95
698,98	2559,14
699,16	2193,30
699,35	1974,45
699,54	1819,77
699,72	1717,81
699,91	1658,85
700,10	1609,68
700,28	1564,85
700,47	1545,06
700,66	1538,10
700,84	1503,08
701,03	1482,60
701,21	1505,31
701,40	1582,39
701,59	1731,53
701,77	2064,33
701,96	2457,18
702,15	2851,16
702,33	3157,12
702,52	3262,34
702,71	3189,92
702,89	2977,77
703,08	2686,04
703,26	2456,38
703,45	2250,51
703,64	2105,08
703,82	1976,42
704,01	1893,19
704,20	1811,53
704,38	1761,18
704,57	1741,77
704,75	1828,43
704,94	2583,00
705,13	6770,94
705,31	18295,45
705,50	36386,57
705,68	52735,76
705,87	51036,07
706,06	50654,10
706,24	51226,38
706,43	53272,28
706,61	55747,48
706,80	58085,03
706,99	54372,06
707,17	45933,71
707,36	32661,42
707,54	21317,79
707,73	16694,32
707,92	12423,98
708,10	8961,94
708,29	6403,49
708,47	4640,83
708,66	3479,29
708,84	2727,72
709,03	2236,38
709,22	1936,66
709,40	1786,96
709,59	1716,20
709,77	1719,50
709,96	1726,90
710,14	1736,22
710,33	1711,59
710,52	1672,58
710,70	1606,22
710,89	1557,74
711,07	1557,20
711,26	1535,16
711,44	1534,57
711,63	1552,23
711,81	1539,28
712,00	1560,19
712,19	1534,47
712,37	1506,33
712,56	1471,49
712,74	1468,88
712,93	1531,60
713,11	1970,94
713,30	3141,28
713,48	5062,04
713,67	7274,33
713,85	9080,28
714,04	10459,74
714,22	10790,34
714,41	10135,81
714,59	8609,20
714,78	7062,70
714,97	5886,43
715,15	4832,54
715,34	4168,38
715,52	3588,37
715,71	3036,65
715,89	2540,63
716,08	2196,22
716,26	1943,34
716,45	1760,28
716,63	1655,65
716,82	1557,79
717,00	1541,02
717,19	1490,84
717,37	1457,00
717,56	1446,94
717,74	1442,72
717,93	1441,69
718,11	1414,20
718,30	1420,42
718,48	1419,34
718,67	1399,97
718,85	1383,58
719,04	1393,36
719,22	1400,73
719,41	1478,10
719,59	1556,35
719,78	1630,67
719,96	1729,36
720,15	1742,10
720,33	1790,74
720,52	1704,73
720,70	1652,20
720,88	1589,81
721,07	1538,43
721,25	1506,97
721,44	1470,90
721,62	1419,98
721,81	1404,70
721,99	1379,26
722,18	1367,92
722,36	1363,67
722,55	1368,38
722,73	1361,90
722,92	1364,72
723,10	1378,95
723,28	1391,49
723,47	1384,81
723,65	1401,73
723,84	1382,71
724,02	1369,37
724,21	1381,05
724,39	1371,88
724,58	1376,36
724,76	1390,57
724,94	1384,07
725,13	1423,57
725,31	1491,77
725,50	1760,92
725,68	3132,68
725,87	6981,37
726,05	13293,16
726,23	21057,80
726,42	27695,99
726,60	32526,86
726,79	33990,50
726,97	32051,56
727,16	26896,08
727,34	21455,60
727,52	16738,79
727,71	13009,41
727,89	10226,40
728,08	7914,55
728,26	6006,03
728,44	4532,90
728,63	3586,45
728,81	2884,44
729,00	2459,25
729,18	2131,99
729,36	1887,77
729,55	1715,33
729,73	1615,69
729,92	1601,97
730,10	1611,39
730,28	1694,90
730,47	1750,14
730,65	1784,34
730,84	1805,64
731,02	1782,09
731,20	1726,92
731,39	1643,96
731,57	1592,94
731,75	1561,93
731,94	1469,42
732,12	1437,44
732,31	1423,18
732,49	1390,06
732,67	1373,78
732,86	1387,22
733,04	1384,09
733,22	1387,75
733,41	1390,24
733,59	1427,23
733,78	1493,79
733,96	1635,82
734,14	1875,38
734,33	2106,67
734,51	2304,53
734,69	2448,35
734,88	2473,20
735,06	2429,48
735,24	2294,44
735,43	2162,35
735,61	2128,43
735,79	2280,34
735,98	2614,41
736,16	3096,68
736,34	3520,43
736,53	4404,80
736,71	7787,02
736,89	20137,45
737,08	43830,93
737,26	49612,25
737,44	48805,89
737,63	48747,57
737,81	49359,12
737,99	50227,59
738,18	51187,83
738,36	52012,80
738,54	52833,24
738,73	53649,28
738,91	57987,85
739,09	60517,19
739,28	61461,05
739,46	62146,41
739,64	62617,46
739,82	54581,34
740,01	40263,42
740,19	30164,35
740,37	13210,29
740,56	3949,87
740,74	3250,15
740,92	2688,21
741,11	2321,30
741,29	2087,32
741,47	1934,43
741,65	1836,57
741,84	1788,18
742,02	1769,62
742,20	1810,12
742,39	1872,77
742,57	1958,17
742,75	2024,62
742,93	2067,27
743,12	2043,62
743,30	1997,26
743,48	1891,30
743,67	1780,68
743,85	1693,87
744,03	1617,97
744,21	1550,49
744,40	1508,43
744,58	1499,22
744,76	1464,68
744,94	1465,63
745,13	1471,95
745,31	1469,90
745,49	1479,38
745,67	1518,47
745,86	1580,60
746,04	1659,67
746,22	1732,10
746,40	1825,00
746,59	1872,74
746,77	1918,90
746,95	1942,42
747,13	1962,88
747,32	1964,31
747,50	2031,82
747,68	2112,99
747,86	2164,65
748,05	2213,50
748,23	2285,79
748,41	2435,14
748,59	3296,38
748,77	7780,18
748,96	20856,54
749,14	42671,55
749,32	50778,54
749,50	49519,37
749,69	49525,31
749,87	49743,86
750,05	49755,27
750,23	49676,25
750,41	49480,92
750,60	49290,31
750,78	49620,77
750,96	50334,49
751,14	51113,31
751,32	51958,78
751,51	52736,94
751,69	53252,13
751,87	54014,00
752,05	57839,89
752,23	61211,61
752,42	61924,46
752,60	62421,42
752,78	62811,41
752,96	63102,27
753,14	63300,95
753,33	58443,52
753,51	43338,83
753,69	33676,95
753,87	33392,44
754,05	8783,25
754,23	2446,35
754,42	2157,64
754,60	1997,15
754,78	1890,92
754,96	1799,17
755,14	1751,24
755,32	1712,82
755,51	1701,15
755,69	1690,68
755,87	1682,84
756,05	1661,90
756,23	1682,89
756,41	1668,79
756,60	1681,87
756,78	1703,27
756,96	1719,32
757,14	1721,34
757,32	1745,20
757,50	1780,71
757,68	1774,31
757,87	1797,35
758,05	1792,97
758,23	1809,97
758,41	1821,64
758,59	1818,98
758,77	1841,20
758,95	1885,69
759,14	1930,42
759,32	2043,51
759,50	2229,93
759,68	2433,06
759,86	2676,82
760,04	2898,21
760,22	2978,41
760,40	3038,21
760,59	3026,72
760,77	3001,81
760,95	3068,78
761,13	3143,35
761,31	3390,95
761,49	3991,90
761,67	6661,89
761,85	22190,13
762,03	47562,38
762,22	45971,96
762,40	45805,13
762,58	45676,56
762,76	45712,20
762,94	45872,78
763,12	46053,24
763,30	46204,43
763,48	46341,44
763,66	46845,67
763,84	48614,61
764,02	50144,69
764,21	50693,75
764,39	51047,52
764,57	51102,40
764,75	51037,66
764,93	51022,58
765,11	50917,93
765,29	50449,46
765,47	49976,10
765,65	49789,78
765,83	50030,11
766,01	50480,02
766,19	51007,68
766,37	51584,29
766,56	52337,10
766,74	52626,12
766,92	52704,45
767,10	52760,13
767,28	52764,84
767,46	52772,90
767,64	52790,57
767,82	52780,84
768,00	52778,31
768,18	52688,12
768,36	52434,73
768,54	52427,46
768,72	52230,04
768,90	51868,57
769,08	51679,95
769,26	51801,37
769,44	52136,96
769,62	52567,21
769,80	52955,97
769,98	53452,80
770,16	54042,85
770,34	54137,11
770,52	54056,93
770,71	53748,45
770,89	53202,29
771,07	50050,82
771,25	48066,21
771,43	47111,17
771,61	46934,76
771,79	47558,98
771,97	48527,31
772,15	49800,69
772,33	50896,68
772,51	51766,99
772,69	52437,88
772,87	52597,37
773,05	52683,10
773,23	52938,76
773,41	53458,82
773,59	53751,12
773,77	54783,06
773,95	59053,59
774,13	62600,80
774,31	63037,43
774,49	63293,27
774,67	63483,19
774,85	63601,74
775,03	63702,86
775,21	63756,88
775,39	63817,11
775,57	63828,53
775,75	63818,96
775,93	63863,04
776,10	63860,07
776,28	63842,56
776,46	63868,88
776,64	63859,15
776,82	63876,58
777,00	63444,72
777,18	63896,04
777,36	63854,28
777,54	63882,67
777,72	63887,31
777,90	51054,81
778,08	33736,65
778,26	32642,06
778,44	32631,67
778,62	32623,25
778,80	32618,92
778,98	32650,18
779,16	32664,92
779,34	28545,89
779,52	10066,25
779,70	1550,29
779,88	1466,86
780,05	1402,99
780,23	1350,33
780,41	1346,36
780,59	1333,46
780,77	1311,70
780,95	1303,53
781,13	1301,15
781,31	1280,57
781,49	1270,66
781,67	1269,20
781,85	1270,94
782,03	1252,79
782,21	1244,81
782,39	1257,58
782,56	1238,07
782,74	1238,25
782,92	1236,28
783,10	1216,16
783,28	1220,74
783,46	1222,77
783,64	1241,63
783,82	1251,95
784,00	1259,83
784,18	1280,75
784,35	1295,85
784,53	1306,86
784,71	1327,70
784,89	1341,57
785,07	1342,49
785,25	1357,70
785,43	1370,07
785,61	1339,96
785,79	1344,18
785,96	1329,31
786,14	1330,90
786,32	1329,59
786,50	1289,66
786,68	1274,68
786,86	1262,19
787,04	1269,43
787,22	1253,54
787,39	1262,34
787,57	1268,87
787,75	1295,52
787,93	1367,12
788,11	1444,92
788,29	1502,16
788,47	1549,21
788,65	1542,99
788,82	1511,81
789,00	1452,09
789,18	1401,32
789,36	1383,99
789,54	1342,80
789,72	1358,01
789,89	1387,35
790,07	1389,73
790,25	1421,37
790,43	1435,14
790,61	1432,32
790,79	1444,07
790,96	1487,26
791,14	1504,75
791,32	1534,52
791,50	1590,25
791,68	1587,05
791,86	1620,48
792,03	1625,17
792,21	1664,08
792,39	1687,55
792,57	1806,72
792,75	1913,21
792,93	2193,96
793,10	3644,21
793,28	10795,53
793,46	28045,52
793,64	51349,90
793,82	49652,90
793,99	49202,73
794,17	49541,21
794,35	50199,45
794,53	51188,77
794,71	53090,54
794,88	56904,94
795,06	58797,49
795,24	60016,93
795,42	49269,72
795,60	32909,22
795,77	16264,46
795,95	11530,86
796,13	9883,91
796,31	8430,03
796,49	7298,99
796,66	6299,14
796,84	5584,55
797,02	4949,56
797,20	4374,72
797,37	3798,34
797,55	3290,11
797,73	2865,26
797,91	2602,89
798,08	2378,28
798,26	2329,69
798,44	2291,52
798,62	2366,27
798,80	2676,82
798,97	4542,45
799,15	10388,86
799,33	21673,22
799,51	35991,08
799,68	48759,88
799,86	52688,27
800,04	50524,64
800,22	49650,01
800,39	49297,58
800,57	49079,11
800,75	49269,14
800,93	49889,11
801,10	50665,80
801,28	51683,61
801,46	52759,36
801,63	55180,75
801,81	58453,66
801,99	59719,41
802,17	60473,75
802,34	54311,98
802,52	38588,16
802,70	34116,80
802,88	15079,40
803,05	9698,08
803,23	8302,21
803,41	7083,28
803,58	6131,59
803,76	5375,02
803,94	4660,49
804,12	4079,68
804,29	3469,82
804,47	3024,08
804,65	2661,67
804,82	2361,18
805,00	2217,49
805,18	2100,01
805,35	2018,53
805,53	1953,25
805,71	1930,13
805,89	1938,58
806,06	1934,43
806,24	1973,65
806,42	2025,88
806,59	2099,32
806,77	2228,06
806,95	2294,90
807,12	2415,76
807,30	2519,85
807,48	2662,00
807,65	2793,66
807,83	3018,19
808,01	3258,96
808,18	3532,93
808,36	3900,48
808,54	4870,86
808,71	8518,78
808,89	19509,67
809,07	40126,88
809,24	50538,03
809,42	48715,16
809,60	48376,84
809,77	48383,16
809,95	48004,26
810,13	46998,55
810,30	46050,09
810,48	45906,42
810,66	45851,18
810,83	45855,12
811,01	45982,10
811,18	46133,08
811,36	46346,61
811,54	48139,63
811,71	50001,69
811,89	50730,87
812,07	51003,61
812,24	51043,88
812,42	51575,00
812,59	51880,01
812,77	51904,49
812,95	51917,62
813,12	52437,24
813,30	52732,99
813,48	52733,53
813,65	52733,45
813,83	52736,91
814,00	52739,09
814,18	52755,55
814,36	52777,15
814,53	53017,84
814,71	53529,14
814,88	53530,86
815,06	53541,92
815,24	53512,94
815,41	54021,37
815,59	54276,60
815,76	54261,34
815,94	54411,56
816,12	56664,43
816,29	58197,13
816,47	60549,25
816,64	58585,42
816,82	51828,76
817,00	47276,54
817,17	46026,61
817,35	45856,71
817,52	45834,33
817,70	45842,86
817,87	45881,85
818,05	45874,01
818,23	45746,73
818,40	45619,45
818,58	45641,01
818,75	45649,74
818,93	45640,29
819,10	45728,76
819,28	46072,67
819,46	46271,06
819,63	46373,82
819,81	46386,98
819,98	46428,78
820,16	46399,57
820,33	46436,69
820,51	46790,38
820,68	48024,87
820,86	49166,84
821,03	50211,69
821,21	50343,07
821,39	50379,52
821,56	50856,36
821,74	51169,40
821,91	51179,35
822,09	51176,20
822,26	51199,42
822,44	51205,77
822,61	51214,45
822,79	51585,62
822,96	52002,36
823,14	52013,03
823,31	52030,44
823,49	51996,54
823,66	52010,39
823,84	52016,18
824,01	52059,19
824,19	52507,21
824,36	52776,26
824,54	52733,17
824,71	52613,42
824,89	52377,49
825,06	51932,88
825,24	51404,73
825,41	50919,21
825,59	50609,17
825,76	50571,93
825,94	50905,26
826,11	51393,95
826,29	51925,25
826,46	52335,71
826,64	52558,05
826,81	52662,39
826,99	52722,09
827,16	52856,38
827,34	53284,15
827,51	53525,30
827,69	53498,27
827,86	53562,40
828,04	53572,51
828,21	53588,53
828,39	53575,22
828,56	53593,73
828,74	53583,05
828,91	53603,66
829,09	53784,70
829,26	54405,88
829,43	54382,04
829,61	54407,44
829,78	54407,54
829,96	54407,28
830,13	54742,84
830,31	55573,73
830,48	56099,93
830,66	57731,75
830,83	58117,26
831,01	59679,40
831,18	60690,53
831,35	63628,34
831,53	63863,91
831,70	63879,17
831,88	63852,11
832,05	63891,22
832,23	63916,26
832,40	63892,40
832,57	63889,12
832,75	63918,77
832,92	63892,32
833,10	63878,65
833,27	63898,65
833,45	63915,42
833,62	63915,26
833,79	63906,99
833,97	63907,43
834,14	63907,56
834,32	63901,85
834,49	63923,30
834,66	63913,37
834,84	34349,66
835,01	32529,96
835,19	32502,90
835,36	32495,66
835,53	32477,53
835,71	32482,55
835,88	13191,79
836,06	4090,51
836,23	1134,37
836,40	1146,30
836,58	1146,38
836,75	1152,29
836,93	1166,55
837,10	1163,89
837,27	1203,67
837,45	1262,50
837,62	1283,64
837,79	1331,00
837,97	1410,13
838,14	1512,02
838,32	1692,83
838,49	1873,46
838,66	2194,83
838,84	2693,36
839,01	3684,12
839,18	5844,67
839,36	10479,92
839,53	18282,14
839,70	29690,27
839,88	41808,33
840,05	50710,60
840,23	52241,58
840,40	52301,85
840,57	52578,35
840,75	51021,22
840,92	47898,30
841,09	47653,98
841,27	50900,50
841,44	50667,18
841,61	49790,06
841,79	49629,04
841,96	49909,66
842,13	50614,17
842,31	51493,08
842,48	52494,10
842,65	54537,84
842,83	56745,32
843,00	48037,77
843,17	43567,31
843,35	35517,33
843,52	23224,94
843,69	19761,93
843,86	17420,74
844,04	14671,65
844,21	12620,91
844,38	10871,00
844,56	9252,52
844,73	7877,43
844,90	6835,51
845,08	5952,04
845,25	5245,92
845,42	4451,44
845,60	3790,79
845,77	3093,76
845,94	2517,06
846,11	2032,76
846,29	1666,36
846,46	1406,67
846,63	1244,68
846,81	1117,63
846,98	1038,40
847,15	998,85
847,32	957,19
847,50	910,99
847,67	900,90
847,84	878,73
848,01	876,04
848,19	855,92
848,36	849,37
848,53	854,82
848,71	860,94
848,88	858,18
849,05	876,38
849,22	890,28
849,40	912,96
849,57	925,50
849,74	954,46
849,91	1012,67
850,09	1102,63
850,26	1274,04
850,43	1669,56
850,60	2397,94
850,78	3860,42
850,95	6181,64
851,12	9368,92
851,29	12942,98
851,47	16064,47
851,64	17796,21
851,81	18471,86
851,98	17669,31
852,15	16038,10
852,33	13651,89
852,50	11282,46
852,67	9486,34
852,84	8233,68
853,02	7146,28
853,19	6234,99
853,36	5415,98
853,53	4822,17
853,70	4269,78
853,88	3799,19
854,05	3354,65
854,22	2999,35
854,39	2679,92
854,56	2401,40
854,74	2171,67
854,91	1974,83
855,08	1792,61
855,25	1589,38
855,42	1425,41
855,60	1229,78
855,77	1082,58
855,94	945,70
856,11	860,30
856,28	774,77
856,46	740,03
856,63	699,28
856,80	686,89
856,97	650,20
857,14	658,83
857,31	650,74
857,49	644,88
857,66	629,65
857,83	617,67
858,00	617,13
858,17	612,91
858,34	592,30
858,52	599,01
858,69	593,99
858,86	581,65
859,03	580,47
859,20	587,38
859,37	589,94
859,55	585,39
859,72	588,41
859,89	584,75
860,06	608,25
860,23	597,39
860,40	592,96
860,57	588,18
860,75	586,38
860,92	573,38
861,09	575,07
861,26	558,89
861,43	555,15
861,60	555,97
861,77	545,09
861,95	539,92
862,12	547,42
862,29	535,21
862,46	533,24
862,63	510,53
862,80	513,89
862,97	500,93
863,14	499,42
863,31	495,30
863,49	494,89
863,66	494,20
863,83	497,25
864,00	498,17
864,17	504,62
864,34	492,82
864,51	514,81
864,68	515,96
864,85	535,11
865,02	562,58
865,20	611,24
865,37	682,84
865,54	851,34
865,71	1083,73
865,88	1469,62
866,05	1873,07
866,22	2333,71
866,39	2646,54
866,56	2878,27
866,73	2876,24
866,90	2800,09
867,07	2552,82
867,25	2287,84
867,42	2001,22
867,59	1785,68
867,76	1595,62
867,93	1500,06
868,10	1361,75
868,27	1247,98
868,44	1127,18
868,61	1056,01
868,78	976,96
868,95	908,81
869,12	857,71
869,29	802,75
869,46	746,20
869,63	696,08
869,80	663,52
869,97	648,90
870,14	610,37
870,32	566,19
870,49	545,68
870,66	511,33
870,83	490,87
871,00	478,61
871,17	454,70
871,34	453,37
871,51	443,90
871,68	450,96
871,85	438,93
872,02	450,48
872,19	441,67
872,36	438,09
872,53	451,58
872,70	451,83
872,87	445,10
873,04	441,62
873,21	442,72
873,38	448,61
873,55	437,09
873,72	441,41
873,89	441,49
874,06	440,90
874,23	450,50
874,40	425,47
874,57	430,69
874,74	416,63
874,91	429,56
875,08	420,37
875,25	408,57
875,42	423,49
875,59	427,49
875,76	445,18
875,93	429,10
876,10	433,89
876,27	419,45
876,44	434,12
876,61	427,33
876,78	414,69
876,95	415,66
877,12	422,04
877,29	416,76
877,46	410,26
877,62	396,72
877,79	403,27
877,96	389,27
878,13	402,32
878,30	402,37
878,47	386,32
878,64	393,65
878,81	408,24
878,98	394,82
879,15	397,84
879,32	381,54
879,49	385,38
879,66	377,08
879,83	402,61
880,00	392,93
880,17	393,47
880,34	384,43
880,51	388,42
880,67	390,37
880,84	384,48
881,01	385,58
881,18	382,43
881,35	374,91
881,52	376,26
881,69	377,70
881,86	372,12
882,03	376,85
882,20	377,67
882,37	374,88
882,54	382,92
882,70	367,79
882,87	361,90
883,04	369,22
883,21	364,54
883,38	376,90
883,55	361,16
883,72	368,15
883,89	362,21
884,06	360,01
884,23	367,97
884,39	369,04
884,56	379,59
884,73	371,81
884,90	369,22
885,07	366,07
885,24	373,75
885,41	367,23
885,58	378,72
885,74	370,02
885,91	366,23
886,08	357,40
886,25	362,70
886,42	356,19
886,59	362,34
886,76	364,46
886,93	356,06
887,09	352,79
887,26	371,71
887,43	360,54
887,60	361,13
887,77	351,18
887,94	360,52
888,10	357,63
888,27	358,04
888,44	348,51
888,61	347,85
888,78	340,14
888,95	341,42
889,12	353,22
889,28	344,98
889,45	332,59
889,62	340,12
889,79	343,27
889,96	335,18
890,13	342,93
890,29	329,19
890,46	345,29
890,63	345,90
890,80	337,63
890,97	338,17
891,13	339,66
891,30	345,03
891,47	334,20
891,64	337,02
891,81	323,58
891,98	326,83
892,14	323,58
892,31	325,52
892,48	339,02
892,65	333,36
892,82	327,93
892,98	324,88
893,15	315,62
893,32	335,12
>>>>>End Processed Spectral Data<<<<<
