SpectraSuite Datei
++++++++++++++++++++++++++++++++++++
Datum: Wed Oct 31 16:12:02 CET 2018
Benutzer: Admin
Dark-Spektrum vorhanden: Ja
Referenz-Spektrum vorhanden: Nein
Zahl der probierten Teilspektren: 1
Spektrometer: USB4F05832
Integrationszeit (usec): 5000 (USB4F05832)
Spektren Durchschnitt berechnet: 800 (USB4F05832)
Boxcar Glttung: 0 (USB4F05832)
Dunkelstromkorrektur: Nein (USB4F05832)
Puls/Lampe aktiviert: Nein (USB4F05832)
Correct for Detector Non-linearity: Nein (USB4F05832)
Streulichtkorrektur: Nein (USB4F05832)
Anzahl Pixel in verarbeitetem Spektrum: 3648
>>>>>Begin Processed Spectral Data<<<<<
177,54	8,71
177,75	8,71
177,97	8,71
178,19	1,54
178,41	0,12
178,63	22,70
178,85	11,79
179,07	-5,15
179,29	-4,39
179,51	-7,95
179,73	-4,38
179,95	17,31
180,17	-4,37
180,39	-0,19
180,61	14,88
180,83	15,52
181,05	-16,75
181,27	15,27
181,49	10,07
181,71	6,15
181,92	-8,18
182,14	14,09
182,36	18,66
182,58	23,51
182,80	17,26
183,02	16,47
183,24	33,19
183,46	6,09
183,68	-10,85
183,90	-2,28
184,12	16,41
184,34	2,16
184,56	1,68
184,78	-3,65
185,00	-3,85
185,21	16,34
185,43	25,87
185,65	-1,88
185,87	-12,79
186,09	2,13
186,31	5,61
186,53	12,21
186,75	5,15
186,97	4,09
187,19	0,22
187,41	6,00
187,63	23,68
187,84	7,73
188,06	-7,06
188,28	11,81
188,50	24,15
188,72	15,99
188,94	8,46
189,16	14,19
189,38	-6,95
189,60	9,55
189,82	23,59
190,03	5,93
190,25	-1,85
190,47	8,18
190,69	21,32
190,91	0,61
191,13	25,21
191,35	1,52
191,57	-2,90
191,79	-6,75
192,01	-7,61
192,22	10,19
192,44	5,46
192,66	29,49
192,88	21,11
193,10	-12,26
193,32	-0,45
193,54	4,57
193,76	21,73
193,98	12,54
194,19	17,07
194,41	2,60
194,63	-0,42
194,85	12,96
195,07	16,44
195,29	25,78
195,51	18,10
195,73	-4,64
195,94	42,74
196,16	12,60
196,38	29,20
196,60	19,36
196,82	15,68
197,04	6,84
197,26	2,00
197,48	24,15
197,69	14,19
197,91	24,56
198,13	-4,11
198,35	4,30
198,57	11,75
198,79	8,52
199,01	2,75
199,22	16,05
199,44	-7,39
199,66	17,67
199,88	16,55
200,10	23,07
200,32	26,52
200,54	1,50
200,75	-6,48
200,97	5,31
201,19	3,94
201,41	-0,50
201,63	15,09
201,85	4,65
202,06	9,26
202,28	-0,66
202,50	28,52
202,72	19,55
202,94	10,22
203,16	12,73
203,38	5,45
203,59	17,71
203,81	-2,10
204,03	22,38
204,25	8,10
204,47	20,57
204,69	11,24
204,90	-7,80
205,12	-3,66
205,34	12,08
205,56	-11,55
205,78	27,78
206,00	18,47
206,21	2,16
206,43	7,03
206,65	29,58
206,87	1,20
207,09	33,71
207,30	10,08
207,52	14,42
207,74	6,34
207,96	26,88
208,18	1,56
208,40	18,31
208,61	23,24
208,83	9,41
209,05	27,06
209,27	-0,62
209,49	18,34
209,70	14,29
209,92	21,70
210,14	8,12
210,36	6,25
210,58	7,48
210,79	6,07
211,01	11,04
211,23	19,61
211,45	8,21
211,67	18,14
211,88	15,98
212,10	-2,29
212,32	7,86
212,54	-0,22
212,76	25,01
212,97	13,57
213,19	-2,36
213,41	14,38
213,63	37,19
213,85	26,74
214,06	12,42
214,28	5,13
214,50	-10,98
214,72	22,33
214,94	8,94
215,15	24,01
215,37	3,72
215,59	20,27
215,81	15,83
216,02	11,43
216,24	17,84
216,46	9,35
216,68	3,32
216,90	2,83
217,11	10,65
217,33	5,39
217,55	-8,16
217,77	7,88
217,98	6,17
218,20	-3,14
218,42	12,14
218,64	15,22
218,85	1,20
219,07	19,02
219,29	29,48
219,51	-15,65
219,73	27,70
219,94	1,79
220,16	17,38
220,38	12,41
220,60	8,27
220,81	0,49
221,03	8,19
221,25	3,90
221,47	5,07
221,68	8,35
221,90	18,82
222,12	10,24
222,34	29,70
222,55	13,97
222,77	18,16
222,99	11,89
223,21	19,97
223,42	27,05
223,64	22,38
223,86	-0,57
224,08	10,85
224,29	18,74
224,51	13,17
224,73	25,49
224,94	0,68
225,16	12,69
225,38	20,86
225,60	19,33
225,81	19,02
226,03	28,22
226,25	20,97
226,47	20,14
226,68	11,51
226,90	14,17
227,12	23,79
227,33	1,84
227,55	17,51
227,77	16,53
227,99	22,15
228,20	-0,26
228,42	21,47
228,64	34,68
228,86	15,94
229,07	13,09
229,29	12,34
229,51	15,05
229,72	19,84
229,94	3,69
230,16	17,57
230,38	18,32
230,59	16,79
230,81	-1,37
231,03	5,16
231,24	23,11
231,46	11,95
231,68	7,78
231,89	1,97
232,11	15,62
232,33	16,98
232,55	14,68
232,76	6,14
232,98	20,98
233,20	12,34
233,41	2,44
233,63	17,15
233,85	-5,91
234,06	-4,60
234,28	-6,63
234,50	40,69
234,71	8,64
234,93	19,41
235,15	16,35
235,37	15,76
235,58	13,11
235,80	13,22
236,02	28,47
236,23	-5,86
236,45	17,76
236,67	7,13
236,88	14,65
237,10	38,74
237,32	21,57
237,53	-0,45
237,75	7,09
237,97	7,55
238,18	-5,07
238,40	19,35
238,62	2,04
238,83	8,16
239,05	32,17
239,27	15,41
239,48	12,95
239,70	24,62
239,92	15,50
240,13	14,93
240,35	-1,51
240,57	22,75
240,78	-0,15
241,00	13,76
241,22	1,42
241,43	7,24
241,65	23,23
241,87	19,19
242,08	17,56
242,30	20,98
242,52	22,32
242,73	17,59
242,95	24,64
243,16	0,50
243,38	15,59
243,60	19,06
243,81	19,53
244,03	8,44
244,25	34,54
244,46	7,51
244,68	12,19
244,90	11,61
245,11	0,64
245,33	31,19
245,55	15,57
245,76	-7,35
245,98	23,91
246,19	13,45
246,41	17,45
246,63	3,08
246,84	28,07
247,06	19,97
247,28	14,05
247,49	21,95
247,71	4,57
247,92	17,05
248,14	-9,18
248,36	17,42
248,57	-0,52
248,79	20,34
249,01	26,43
249,22	22,08
249,44	19,97
249,65	-5,10
249,87	2,01
250,09	21,84
250,30	4,64
250,52	7,26
250,73	13,79
250,95	13,39
251,17	36,36
251,38	8,59
251,60	17,20
251,81	16,98
252,03	27,85
252,25	2,57
252,46	32,02
252,68	0,31
252,89	29,94
253,11	10,41
253,33	-1,14
253,54	-1,91
253,76	1,52
253,97	9,67
254,19	22,91
254,41	19,06
254,62	40,45
254,84	-4,07
255,05	12,19
255,27	12,07
255,49	23,04
255,70	-1,13
255,92	30,54
256,13	-9,93
256,35	4,52
256,56	9,89
256,78	18,86
257,00	13,19
257,21	8,87
257,43	10,88
257,64	35,48
257,86	4,73
258,08	19,92
258,29	10,37
258,51	3,39
258,72	6,45
258,94	7,87
259,15	18,64
259,37	29,64
259,59	22,19
259,80	11,31
260,02	9,30
260,23	-4,49
260,45	16,82
260,66	5,43
260,88	42,42
261,09	14,80
261,31	41,02
261,53	22,27
261,74	31,99
261,96	21,07
262,17	38,80
262,39	18,49
262,60	22,57
262,82	16,01
263,03	2,55
263,25	28,70
263,46	51,62
263,68	6,17
263,90	13,50
264,11	17,49
264,33	28,89
264,54	45,12
264,76	32,06
264,97	2,83
265,19	25,32
265,40	6,81
265,62	32,02
265,83	48,60
266,05	8,86
266,26	31,31
266,48	22,84
266,70	43,93
266,91	18,52
267,13	36,57
267,34	39,46
267,56	36,06
267,77	1,93
267,99	30,23
268,20	13,99
268,42	8,22
268,63	20,72
268,85	33,64
269,06	18,93
269,28	27,29
269,49	27,23
269,71	7,57
269,92	14,73
270,14	8,91
270,35	22,25
270,57	33,34
270,78	-1,13
271,00	48,01
271,21	-2,44
271,43	30,14
271,64	20,65
271,86	21,49
272,07	5,83
272,29	39,50
272,50	22,27
272,72	32,99
272,93	36,26
273,15	49,67
273,36	28,00
273,58	20,04
273,79	16,72
274,01	28,88
274,22	36,96
274,44	18,15
274,65	31,47
274,87	29,30
275,08	35,18
275,30	13,45
275,51	21,86
275,73	16,56
275,94	14,59
276,16	24,09
276,37	26,93
276,59	27,51
276,80	32,32
277,02	13,43
277,23	19,01
277,45	27,94
277,66	19,51
277,88	30,21
278,09	33,97
278,30	33,24
278,52	17,20
278,73	41,11
278,95	29,80
279,16	16,74
279,38	28,03
279,59	35,17
279,81	25,62
280,02	31,50
280,24	27,18
280,45	4,98
280,67	23,23
280,88	45,55
281,09	34,31
281,31	32,83
281,52	26,50
281,74	40,65
281,95	41,31
282,17	11,72
282,38	20,44
282,60	15,02
282,81	27,61
283,02	30,21
283,24	37,64
283,45	39,69
283,67	23,17
283,88	43,80
284,10	60,19
284,31	23,12
284,53	43,10
284,74	26,12
284,95	22,26
285,17	23,85
285,38	20,68
285,60	35,89
285,81	11,05
286,03	38,60
286,24	31,21
286,45	25,32
286,67	45,17
286,88	34,82
287,10	53,98
287,31	14,00
287,53	38,80
287,74	46,14
287,95	15,11
288,17	31,08
288,38	34,25
288,60	35,91
288,81	28,73
289,02	25,41
289,24	43,54
289,45	14,87
289,67	29,65
289,88	56,01
290,10	22,94
290,31	26,14
290,52	14,46
290,74	40,53
290,95	30,07
291,17	35,79
291,38	32,62
291,59	53,66
291,81	28,38
292,02	34,42
292,24	39,12
292,45	22,28
292,66	22,70
292,88	14,20
293,09	10,34
293,31	21,26
293,52	23,38
293,73	16,57
293,95	25,09
294,16	15,90
294,37	2,90
294,59	41,46
294,80	14,51
295,02	20,26
295,23	47,36
295,44	11,08
295,66	14,31
295,87	21,08
296,09	18,20
296,30	9,33
296,51	17,74
296,73	14,50
296,94	29,71
297,15	-4,31
297,37	33,74
297,58	15,47
297,79	8,18
298,01	27,42
298,22	8,13
298,44	16,80
298,65	14,59
298,86	20,67
299,08	19,34
299,29	3,15
299,50	25,91
299,72	24,29
299,93	18,01
300,14	14,12
300,36	1,00
300,57	17,50
300,79	-11,60
301,00	15,44
301,21	16,10
301,43	8,67
301,64	12,47
301,85	19,19
302,07	29,96
302,28	21,76
302,49	3,94
302,71	12,33
302,92	17,79
303,13	22,07
303,35	21,20
303,56	28,58
303,77	23,32
303,99	15,12
304,20	63,93
304,41	26,91
304,63	42,90
304,84	45,61
305,05	28,42
305,27	27,20
305,48	28,30
305,69	3,47
305,91	20,41
306,12	11,78
306,33	36,46
306,55	17,05
306,76	6,96
306,97	5,96
307,19	11,62
307,40	11,31
307,61	26,91
307,82	4,50
308,04	14,75
308,25	9,16
308,46	22,60
308,68	13,32
308,89	16,25
309,10	20,80
309,32	10,48
309,53	4,81
309,74	15,73
309,96	0,43
310,17	13,18
310,38	6,74
310,59	15,81
310,81	24,24
311,02	32,80
311,23	22,13
311,45	9,89
311,66	26,18
311,87	14,10
312,09	15,22
312,30	24,07
312,51	19,62
312,72	11,00
312,94	2,21
313,15	-0,02
313,36	23,62
313,58	-0,14
313,79	11,31
314,00	13,00
314,21	20,27
314,43	23,01
314,64	14,38
314,85	24,96
315,06	13,88
315,28	26,42
315,49	7,43
315,70	32,45
315,92	15,52
316,13	8,63
316,34	36,43
316,55	31,26
316,77	25,99
316,98	16,43
317,19	24,55
317,40	23,89
317,62	0,80
317,83	15,90
318,04	16,40
318,25	32,46
318,47	21,50
318,68	36,78
318,89	-2,06
319,11	-9,44
319,32	13,64
319,53	7,85
319,74	5,16
319,96	0,58
320,17	16,66
320,38	-0,79
320,59	16,95
320,81	30,63
321,02	10,32
321,23	15,62
321,44	13,08
321,65	13,39
321,87	25,18
322,08	43,89
322,29	25,11
322,50	16,99
322,72	21,75
322,93	9,23
323,14	20,08
323,35	20,07
323,57	12,51
323,78	45,64
323,99	24,24
324,20	3,92
324,41	35,51
324,63	22,82
324,84	17,57
325,05	18,55
325,26	36,57
325,48	29,43
325,69	8,65
325,90	35,58
326,11	20,02
326,32	32,49
326,54	7,29
326,75	24,36
326,96	36,67
327,17	21,30
327,39	34,80
327,60	41,20
327,81	34,49
328,02	31,71
328,23	46,58
328,45	40,89
328,66	77,81
328,87	136,79
329,08	335,79
329,29	898,19
329,51	1782,80
329,72	2773,38
329,93	3562,77
330,14	3866,75
330,35	3520,26
330,56	2833,31
330,78	1830,70
330,99	1039,55
331,20	581,52
331,41	305,00
331,62	147,44
331,84	61,55
332,05	66,03
332,26	53,85
332,47	24,64
332,68	39,70
332,90	33,89
333,11	45,15
333,32	21,73
333,53	41,67
333,74	43,87
333,95	23,92
334,17	16,90
334,38	25,66
334,59	44,78
334,80	21,34
335,01	32,28
335,22	18,11
335,44	31,44
335,65	14,25
335,86	10,54
336,07	19,44
336,28	7,09
336,49	31,35
336,71	56,32
336,92	33,23
337,13	21,87
337,34	46,32
337,55	32,95
337,76	37,70
337,97	31,64
338,19	27,77
338,40	24,49
338,61	22,57
338,82	18,44
339,03	36,13
339,24	-8,29
339,45	11,14
339,67	30,00
339,88	32,36
340,09	23,95
340,30	23,08
340,51	14,54
340,72	31,05
340,93	28,22
341,15	33,34
341,36	2,17
341,57	30,75
341,78	58,12
341,99	29,08
342,20	25,32
342,41	32,18
342,62	42,09
342,84	6,51
343,05	37,70
343,26	26,70
343,47	23,66
343,68	40,41
343,89	36,04
344,10	39,80
344,31	13,06
344,53	37,53
344,74	31,53
344,95	20,76
345,16	26,48
345,37	19,23
345,58	25,63
345,79	34,28
346,00	38,98
346,21	29,09
346,42	8,10
346,64	31,09
346,85	18,27
347,06	32,71
347,27	33,27
347,48	26,03
347,69	39,54
347,90	22,43
348,11	3,92
348,32	25,17
348,53	25,10
348,75	40,43
348,96	28,43
349,17	25,81
349,38	33,69
349,59	39,23
349,80	15,67
350,01	30,59
350,22	24,11
350,43	46,99
350,64	21,03
350,85	16,75
351,06	42,67
351,28	9,35
351,49	19,03
351,70	27,17
351,91	22,25
352,12	30,56
352,33	22,57
352,54	39,04
352,75	24,17
352,96	26,30
353,17	42,43
353,38	13,84
353,59	53,33
353,80	36,71
354,01	30,69
354,22	30,97
354,44	35,44
354,65	51,42
354,86	45,43
355,07	42,90
355,28	44,49
355,49	28,04
355,70	34,75
355,91	32,12
356,12	14,47
356,33	41,71
356,54	37,37
356,75	38,32
356,96	17,05
357,17	36,24
357,38	42,48
357,59	35,36
357,80	26,53
358,01	61,88
358,22	58,47
358,43	37,05
358,64	22,90
358,85	61,84
359,07	62,98
359,28	52,35
359,49	52,39
359,70	39,58
359,91	47,20
360,12	27,02
360,33	35,94
360,54	17,05
360,75	41,03
360,96	36,63
361,17	44,13
361,38	68,08
361,59	29,23
361,80	34,25
362,01	45,46
362,22	39,95
362,43	53,20
362,64	34,69
362,85	56,83
363,06	25,97
363,27	39,20
363,48	50,97
363,69	42,49
363,90	21,64
364,11	12,77
364,32	33,99
364,53	25,91
364,74	45,29
364,95	38,02
365,16	5,25
365,37	19,17
365,58	19,91
365,79	22,79
366,00	37,53
366,21	61,74
366,42	34,00
366,63	34,00
366,84	19,09
367,05	14,11
367,26	37,77
367,47	42,13
367,68	47,81
367,89	40,07
368,10	27,08
368,31	32,96
368,52	29,11
368,73	32,83
368,94	24,93
369,15	30,93
369,36	49,70
369,57	42,39
369,78	34,87
369,99	47,36
370,20	43,51
370,40	23,80
370,61	30,04
370,82	20,47
371,03	36,86
371,24	25,06
371,45	26,54
371,66	32,84
371,87	47,01
372,08	22,98
372,29	35,72
372,50	25,63
372,71	2,14
372,92	51,49
373,13	50,28
373,34	43,34
373,55	40,15
373,76	26,97
373,97	34,89
374,18	25,60
374,39	31,24
374,60	59,61
374,81	38,91
375,01	53,30
375,22	47,33
375,43	13,92
375,64	38,62
375,85	37,06
376,06	43,23
376,27	42,15
376,48	25,18
376,69	54,27
376,90	54,36
377,11	26,41
377,32	43,94
377,53	52,23
377,74	21,17
377,94	35,74
378,15	27,35
378,36	45,44
378,57	25,78
378,78	35,79
378,99	26,49
379,20	43,84
379,41	49,93
379,62	51,46
379,83	34,24
380,04	37,55
380,25	24,04
380,45	45,69
380,66	27,64
380,87	36,21
381,08	28,76
381,29	28,03
381,50	26,26
381,71	24,47
381,92	40,16
382,13	26,83
382,34	15,97
382,55	37,86
382,75	27,01
382,96	58,66
383,17	34,44
383,38	47,85
383,59	52,59
383,80	49,39
384,01	25,89
384,22	54,04
384,43	23,28
384,63	40,21
384,84	48,60
385,05	12,11
385,26	58,01
385,47	35,79
385,68	13,17
385,89	49,31
386,10	43,30
386,30	27,89
386,51	55,49
386,72	38,43
386,93	30,15
387,14	22,72
387,35	45,27
387,56	37,72
387,77	43,75
387,97	48,49
388,18	24,15
388,39	29,91
388,60	39,75
388,81	26,03
389,02	40,17
389,23	42,20
389,43	51,74
389,64	44,06
389,85	26,29
390,06	42,68
390,27	64,92
390,48	29,40
390,69	28,04
390,89	28,35
391,10	17,84
391,31	42,44
391,52	37,13
391,73	33,80
391,94	49,90
392,14	59,69
392,35	56,91
392,56	40,71
392,77	40,66
392,98	39,72
393,19	46,62
393,39	61,63
393,60	53,22
393,81	43,76
394,02	60,75
394,23	80,77
394,44	73,99
394,64	65,55
394,85	55,35
395,06	56,59
395,27	34,76
395,48	46,74
395,69	62,87
395,89	43,97
396,10	30,97
396,31	41,34
396,52	34,61
396,73	41,83
396,93	44,23
397,14	46,43
397,35	43,25
397,56	28,47
397,77	41,36
397,97	22,97
398,18	20,34
398,39	54,73
398,60	10,19
398,81	56,47
399,01	46,93
399,22	33,36
399,43	33,28
399,64	39,83
399,85	24,29
400,05	23,64
400,26	50,39
400,47	29,29
400,68	47,68
400,89	42,23
401,09	17,22
401,30	31,99
401,51	44,71
401,72	10,39
401,93	54,49
402,13	40,28
402,34	25,69
402,55	31,76
402,76	39,84
402,96	51,84
403,17	52,32
403,38	71,55
403,59	58,72
403,80	68,01
404,00	82,01
404,21	86,45
404,42	99,30
404,63	67,04
404,83	68,78
405,04	48,90
405,25	50,09
405,46	30,20
405,66	43,89
405,87	33,37
406,08	38,98
406,29	31,33
406,49	29,06
406,70	36,88
406,91	33,69
407,12	34,58
407,32	42,56
407,53	28,34
407,74	49,68
407,95	29,07
408,15	32,76
408,36	63,91
408,57	51,18
408,78	61,99
408,98	61,12
409,19	52,54
409,40	56,25
409,61	60,78
409,81	51,15
410,02	27,49
410,23	42,43
410,44	60,74
410,64	51,31
410,85	29,88
411,06	57,08
411,26	60,94
411,47	55,37
411,68	39,46
411,89	39,24
412,09	24,69
412,30	49,56
412,51	33,05
412,72	51,56
412,92	40,70
413,13	37,17
413,34	31,65
413,54	61,81
413,75	69,46
413,96	47,86
414,17	46,59
414,37	44,58
414,58	85,16
414,79	162,78
414,99	208,98
415,20	284,47
415,41	318,02
415,61	314,25
415,82	277,60
416,03	220,50
416,24	145,88
416,44	104,03
416,65	87,17
416,86	73,31
417,06	60,94
417,27	60,35
417,48	80,83
417,68	94,48
417,89	97,54
418,10	126,16
418,30	163,07
418,51	164,39
418,72	196,15
418,92	267,74
419,13	316,55
419,34	380,55
419,55	387,80
419,75	376,41
419,96	279,44
420,17	207,09
420,37	159,44
420,58	79,15
420,79	55,49
420,99	32,39
421,20	51,37
421,41	55,28
421,61	57,42
421,82	42,58
422,03	51,68
422,23	41,54
422,44	38,71
422,65	34,16
422,85	37,16
423,06	54,25
423,26	29,59
423,47	50,02
423,68	44,94
423,88	43,42
424,09	47,17
424,30	47,66
424,50	66,65
424,71	81,71
424,92	106,14
425,12	127,74
425,33	153,79
425,54	153,46
425,74	172,57
425,95	188,27
426,15	186,26
426,36	180,95
426,57	176,88
426,77	143,56
426,98	156,74
427,19	118,69
427,39	107,38
427,60	60,29
427,81	50,61
428,01	52,01
428,22	49,54
428,42	65,34
428,63	68,47
428,84	71,78
429,04	78,78
429,25	96,74
429,45	116,03
429,66	125,67
429,87	96,29
430,07	101,77
430,28	89,20
430,49	73,90
430,69	31,50
430,90	49,57
431,10	45,34
431,31	59,61
431,52	72,23
431,72	70,27
431,93	63,29
432,13	56,56
432,34	77,38
432,55	107,79
432,75	127,16
432,96	146,38
433,16	128,18
433,37	127,43
433,58	100,78
433,78	86,56
433,99	75,60
434,19	72,67
434,40	70,36
434,60	55,93
434,81	62,32
435,02	51,95
435,22	34,20
435,43	62,85
435,63	52,38
435,84	37,33
436,05	48,63
436,25	35,89
436,46	62,68
436,66	33,94
436,87	35,61
437,07	52,80
437,28	78,44
437,48	46,63
437,69	60,55
437,90	60,72
438,10	48,82
438,31	64,41
438,51	68,69
438,72	42,23
438,92	70,57
439,13	52,66
439,34	60,56
439,54	56,62
439,75	62,43
439,95	43,30
440,16	60,83
440,36	41,21
440,57	62,86
440,77	27,30
440,98	53,62
441,18	57,51
441,39	64,11
441,60	53,62
441,80	59,50
442,01	42,64
442,21	45,30
442,42	58,33
442,62	47,13
442,83	33,10
443,03	40,61
443,24	74,98
443,44	41,45
443,65	26,87
443,85	51,89
444,06	48,01
444,26	40,88
444,47	46,62
444,67	58,32
444,88	44,60
445,09	43,36
445,29	54,73
445,50	46,40
445,70	59,56
445,91	34,06
446,11	49,37
446,32	43,71
446,52	54,90
446,73	54,25
446,93	58,62
447,14	24,18
447,34	64,01
447,55	63,75
447,75	58,15
447,96	37,60
448,16	38,40
448,37	63,18
448,57	52,55
448,78	48,28
448,98	63,11
449,19	69,31
449,39	62,51
449,60	69,27
449,80	48,06
450,01	70,74
450,21	56,47
450,42	86,72
450,62	84,11
450,83	83,49
451,03	72,22
451,23	68,73
451,44	77,53
451,64	65,36
451,85	65,94
452,05	55,21
452,26	56,83
452,46	67,23
452,67	57,32
452,87	17,63
453,08	42,36
453,28	62,27
453,49	67,71
453,69	35,53
453,90	89,52
454,10	94,13
454,31	213,38
454,51	246,37
454,71	333,08
454,92	331,01
455,12	327,25
455,33	277,20
455,53	247,69
455,74	154,01
455,94	112,65
456,15	76,51
456,35	63,49
456,55	43,04
456,76	55,28
456,96	59,00
457,17	26,11
457,37	77,80
457,58	51,30
457,78	43,51
457,99	73,75
458,19	51,21
458,39	73,29
458,60	90,11
458,80	64,47
459,01	93,06
459,21	65,34
459,42	58,88
459,62	72,01
459,82	61,10
460,03	64,95
460,23	71,85
460,44	76,14
460,64	79,83
460,85	47,78
461,05	67,33
461,25	42,99
461,46	40,09
461,66	42,67
461,87	73,90
462,07	63,92
462,27	58,05
462,48	52,68
462,68	72,20
462,89	53,24
463,09	45,70
463,29	38,50
463,50	39,86
463,70	61,99
463,91	45,85
464,11	46,29
464,31	32,55
464,52	62,44
464,72	52,59
464,93	44,10
465,13	72,12
465,33	86,94
465,54	103,93
465,74	130,85
465,95	178,46
466,15	193,99
466,35	199,54
466,56	170,92
466,76	174,09
466,96	130,58
467,17	115,72
467,37	70,51
467,58	92,17
467,78	55,28
467,98	44,65
468,19	41,19
468,39	50,25
468,59	64,82
468,80	78,48
469,00	70,19
469,21	79,09
469,41	82,19
469,61	80,55
469,82	77,68
470,02	67,45
470,22	66,25
470,43	87,32
470,63	70,68
470,83	88,27
471,04	49,76
471,24	80,10
471,45	47,06
471,65	62,99
471,85	71,27
472,06	48,85
472,26	72,17
472,46	74,37
472,67	72,51
472,87	46,94
473,07	72,51
473,28	68,64
473,48	57,32
473,68	88,21
473,89	78,83
474,09	104,80
474,29	96,43
474,50	130,33
474,70	103,71
474,90	94,45
475,11	96,06
475,31	93,18
475,51	82,03
475,72	59,83
475,92	77,93
476,12	85,98
476,33	92,74
476,53	73,02
476,73	71,28
476,93	56,17
477,14	73,95
477,34	84,70
477,54	59,22
477,75	52,50
477,95	60,77
478,15	92,22
478,36	65,47
478,56	62,02
478,76	71,89
478,97	75,57
479,17	77,69
479,37	61,72
479,57	77,87
479,78	48,86
479,98	56,18
480,18	80,62
480,39	62,16
480,59	84,65
480,79	77,24
480,99	58,62
481,20	69,99
481,40	76,34
481,60	77,11
481,81	78,44
482,01	70,64
482,21	104,46
482,41	87,24
482,62	76,06
482,82	90,55
483,02	79,80
483,23	69,88
483,43	99,51
483,63	73,57
483,83	81,94
484,04	95,58
484,24	74,85
484,44	92,57
484,64	115,74
484,85	92,65
485,05	79,30
485,25	78,29
485,45	87,69
485,66	81,38
485,86	79,11
486,06	70,35
486,26	76,29
486,47	95,37
486,67	67,56
486,87	105,12
487,07	97,95
487,28	115,31
487,48	114,72
487,68	113,75
487,88	105,39
488,09	119,18
488,29	103,76
488,49	119,92
488,69	102,57
488,90	121,74
489,10	102,88
489,30	73,53
489,50	77,29
489,71	87,42
489,91	83,03
490,11	87,01
490,31	97,13
490,52	89,02
490,72	90,31
490,92	73,96
491,12	88,36
491,32	81,42
491,53	80,60
491,73	96,45
491,93	120,78
492,13	176,38
492,33	270,20
492,54	386,63
492,74	457,11
492,94	452,96
493,14	427,81
493,35	352,43
493,55	284,33
493,75	206,81
493,95	150,67
494,15	146,90
494,36	103,72
494,56	102,99
494,76	106,71
494,96	107,32
495,16	90,25
495,37	74,92
495,57	98,49
495,77	89,04
495,97	76,61
496,17	92,94
496,37	138,10
496,58	216,56
496,78	447,86
496,98	761,46
497,18	1189,43
497,38	1593,89
497,59	1811,09
497,79	1762,08
497,99	1532,57
498,19	1173,08
498,39	788,15
498,59	518,73
498,80	342,27
499,00	246,33
499,20	174,10
499,40	128,68
499,60	96,39
499,80	98,40
500,01	84,41
500,21	70,81
500,41	96,22
500,61	85,50
500,81	89,25
501,01	86,04
501,22	86,95
501,42	70,01
501,62	78,54
501,82	87,75
502,02	75,69
502,22	77,59
502,42	94,58
502,63	91,03
502,83	74,50
503,03	108,49
503,23	87,42
503,43	79,06
503,63	84,95
503,83	102,82
504,04	79,82
504,24	80,09
504,44	79,51
504,64	109,44
504,84	87,18
505,04	106,89
505,24	100,41
505,44	107,42
505,65	105,72
505,85	90,84
506,05	119,46
506,25	92,02
506,45	83,91
506,65	90,46
506,85	112,14
507,05	101,96
507,26	89,90
507,46	102,07
507,66	87,07
507,86	68,97
508,06	104,53
508,26	92,92
508,46	89,81
508,66	119,37
508,86	94,29
509,06	88,26
509,27	102,75
509,47	96,52
509,67	99,60
509,87	115,23
510,07	96,72
510,27	105,48
510,47	89,74
510,67	108,57
510,87	111,13
511,07	87,73
511,28	98,54
511,48	88,29
511,68	100,11
511,88	96,46
512,08	84,89
512,28	106,93
512,48	102,86
512,68	109,42
512,88	95,65
513,08	84,81
513,28	119,94
513,48	106,13
513,68	143,08
513,89	231,38
514,09	302,20
514,29	435,00
514,49	461,77
514,69	493,63
514,89	505,42
515,09	437,56
515,29	361,22
515,49	274,87
515,69	215,10
515,89	165,47
516,09	161,86
516,29	122,70
516,49	135,84
516,69	116,32
516,89	114,79
517,09	110,94
517,29	106,04
517,50	131,67
517,70	128,42
517,90	127,54
518,10	151,48
518,30	120,55
518,50	130,41
518,70	125,21
518,90	96,25
519,10	124,79
519,30	110,29
519,50	133,31
519,70	99,39
519,90	115,71
520,10	123,98
520,30	101,96
520,50	120,73
520,70	107,68
520,90	125,37
521,10	132,90
521,30	145,33
521,50	140,71
521,70	136,35
521,90	144,94
522,10	147,16
522,30	127,12
522,50	112,32
522,70	139,59
522,90	128,50
523,10	120,78
523,30	104,95
523,50	104,67
523,70	116,42
523,90	128,16
524,10	157,67
524,30	111,37
524,50	128,72
524,70	133,15
524,90	116,61
525,10	142,84
525,30	139,61
525,50	114,88
525,70	125,05
525,90	102,92
526,10	106,41
526,30	109,24
526,50	80,11
526,70	127,81
526,90	100,01
527,10	111,01
527,30	137,49
527,50	128,16
527,70	123,25
527,90	117,14
528,10	151,64
528,30	130,56
528,50	126,91
528,70	135,13
528,90	119,35
529,10	112,76
529,30	126,16
529,50	116,86
529,70	119,20
529,90	118,88
530,10	119,08
530,29	115,84
530,49	120,72
530,69	125,22
530,89	142,03
531,09	134,48
531,29	127,05
531,49	112,22
531,69	106,05
531,89	127,26
532,09	101,42
532,29	130,40
532,49	117,82
532,69	101,68
532,89	120,02
533,09	103,88
533,29	127,27
533,49	132,35
533,68	124,06
533,88	126,28
534,08	150,05
534,28	105,78
534,48	120,49
534,68	131,29
534,88	130,10
535,08	116,22
535,28	133,02
535,48	108,36
535,68	111,19
535,88	128,38
536,08	126,19
536,27	117,49
536,47	118,01
536,67	142,02
536,87	136,20
537,07	129,25
537,27	127,24
537,47	125,02
537,67	106,23
537,87	144,10
538,07	143,50
538,27	117,14
538,46	139,84
538,66	143,91
538,86	132,26
539,06	133,29
539,26	120,49
539,46	122,78
539,66	129,13
539,86	144,37
540,06	138,75
540,25	149,84
540,45	147,71
540,65	135,84
540,85	131,47
541,05	155,54
541,25	137,43
541,45	156,23
541,65	131,32
541,85	140,82
542,04	157,99
542,24	133,71
542,44	141,68
542,64	157,92
542,84	133,08
543,04	145,63
543,24	132,31
543,43	140,51
543,63	163,27
543,83	166,78
544,03	153,84
544,23	149,46
544,43	183,21
544,63	168,51
544,82	170,81
545,02	158,16
545,22	147,19
545,42	174,91
545,62	171,72
545,82	139,81
546,02	156,88
546,21	130,30
546,41	133,72
546,61	130,54
546,81	154,45
547,01	132,20
547,21	150,21
547,40	144,42
547,60	145,06
547,80	158,88
548,00	146,27
548,20	159,62
548,40	177,63
548,59	197,89
548,79	226,38
548,99	204,59
549,19	225,71
549,39	224,70
549,59	202,44
549,78	175,69
549,98	204,26
550,18	204,71
550,38	185,71
550,58	172,96
550,77	171,32
550,97	188,72
551,17	152,97
551,37	200,45
551,57	189,99
551,76	166,54
551,96	190,69
552,16	185,06
552,36	203,82
552,56	202,36
552,75	193,28
552,95	220,52
553,15	213,22
553,35	211,15
553,55	200,50
553,74	181,10
553,94	210,76
554,14	194,69
554,34	204,65
554,54	214,22
554,73	227,81
554,93	247,85
555,13	261,80
555,33	255,18
555,53	248,38
555,72	265,16
555,92	263,27
556,12	254,30
556,32	235,52
556,51	266,98
556,71	240,31
556,91	228,23
557,11	227,08
557,30	233,63
557,50	233,35
557,70	240,03
557,90	220,94
558,10	239,98
558,29	259,99
558,49	255,50
558,69	243,01
558,89	251,70
559,08	269,84
559,28	265,57
559,48	280,52
559,68	287,95
559,87	310,56
560,07	328,64
560,27	344,50
560,47	305,47
560,66	309,26
560,86	298,37
561,06	288,39
561,25	288,40
561,45	296,88
561,65	312,75
561,85	289,97
562,04	298,32
562,24	280,66
562,44	316,03
562,64	298,65
562,83	324,21
563,03	315,97
563,23	320,42
563,42	357,99
563,62	347,25
563,82	382,49
564,02	408,38
564,21	439,54
564,41	465,12
564,61	483,00
564,80	489,27
565,00	503,27
565,20	546,59
565,40	525,14
565,59	583,13
565,79	585,84
565,99	639,36
566,18	640,64
566,38	694,22
566,58	790,73
566,78	1357,11
566,97	2641,20
567,17	4604,13
567,37	7523,85
567,56	11283,27
567,76	14929,11
567,96	17533,78
568,15	18297,59
568,35	17242,01
568,55	14818,32
568,74	11382,10
568,94	8087,70
569,14	5555,17
569,33	3947,41
569,53	2907,19
569,73	2210,85
569,92	1725,20
570,12	1414,00
570,32	1224,68
570,52	1161,51
570,71	1130,77
570,91	1133,91
571,11	1138,61
571,30	1131,68
571,50	1161,84
571,70	1176,12
571,89	1172,93
572,09	1144,33
572,28	1146,07
572,48	1148,86
572,68	1140,93
572,87	1157,71
573,07	1155,97
573,27	1118,41
573,46	1139,51
573,66	1132,12
573,86	1109,06
574,05	1100,41
574,25	1123,15
574,45	1113,57
574,64	1116,18
574,84	1115,59
575,04	1093,57
575,23	1087,81
575,43	1070,79
575,62	1086,37
575,82	1098,66
576,02	1083,49
576,21	1102,07
576,41	1113,12
576,61	1121,31
576,80	1108,28
577,00	1149,42
577,19	1150,43
577,39	1186,17
577,59	1176,90
577,78	1184,69
577,98	1211,60
578,18	1243,06
578,37	1242,72
578,57	1286,54
578,76	1270,56
578,96	1278,59
579,16	1322,78
579,35	1340,47
579,55	1379,75
579,74	1395,47
579,94	1459,29
580,14	1520,66
580,33	1616,26
580,53	1665,06
580,72	1706,23
580,92	1762,32
581,12	1782,67
581,31	1852,13
581,51	1916,17
581,70	1989,95
581,90	2059,40
582,10	2157,21
582,29	2269,01
582,49	2370,81
582,68	2494,74
582,88	2599,15
583,07	2812,32
583,27	3253,09
583,47	3856,78
583,66	4566,25
583,86	5586,15
584,05	6748,02
584,25	7617,23
584,44	8297,10
584,64	8735,18
584,84	8940,65
585,03	8579,13
585,23	8138,58
585,42	7863,64
585,62	7612,05
585,81	7623,55
586,01	7864,29
586,20	8429,86
586,40	9260,99
586,60	10329,27
586,79	12122,14
586,99	24682,20
587,18	64174,12
587,38	64154,67
587,57	64155,69
587,77	64138,69
587,96	64155,28
588,16	64143,41
588,35	64149,96
588,55	64155,69
588,75	64135,21
588,94	64137,67
589,14	64149,34
589,33	64157,74
589,53	64166,75
589,72	64137,26
589,92	64159,17
590,11	64148,32
590,31	64179,45
590,50	64150,98
590,70	64149,55
590,89	64149,96
591,09	64161,02
591,28	64162,86
591,48	64150,78
591,67	64157,74
591,87	64161,43
592,06	64166,96
592,26	64190,71
592,45	64162,86
592,65	64151,39
592,84	64168,19
593,04	64146,48
593,23	64151,60
593,43	64160,61
593,62	64154,46
593,82	64172,90
594,01	64150,98
594,21	64153,44
594,40	64135,62
594,60	64176,99
594,79	64156,72
594,99	64167,16
595,18	64164,29
595,38	64148,53
595,57	64173,51
595,77	64163,48
595,96	64170,44
596,16	64145,45
596,35	64165,93
596,55	64155,08
596,74	64150,16
596,94	64164,91
597,13	64168,19
597,33	64164,50
597,52	64149,55
597,72	64158,97
597,91	64165,11
598,11	64148,12
598,30	64138,29
598,50	64159,79
598,69	64166,14
598,88	64170,23
599,08	64148,32
599,27	64159,79
599,47	64161,43
599,66	64142,18
599,86	64156,92
600,05	64150,37
600,25	64150,98
600,44	64160,40
600,64	64169,62
600,83	64168,80
601,02	64139,92
601,22	64147,09
601,41	64150,57
601,61	64160,81
601,80	64167,98
602,00	64158,36
602,19	64164,29
602,38	64166,34
602,58	64141,77
602,77	64159,79
602,97	64153,03
603,16	64173,51
603,36	64167,78
603,55	64173,72
603,74	64155,08
603,94	64167,57
604,13	64138,08
604,33	64162,66
604,52	64143,00
604,72	64145,86
604,91	64152,42
605,10	64169,00
605,30	64164,70
605,49	64168,60
605,69	64175,76
605,88	64165,93
606,07	64147,30
606,27	64167,78
606,46	64157,13
606,66	64157,54
606,85	64152,83
607,04	64137,06
607,24	64150,78
607,43	64135,83
607,63	64149,75
607,82	64168,80
608,01	64168,39
608,21	64170,85
608,40	64147,71
608,60	64134,19
608,79	64148,32
608,98	64161,02
609,18	64150,57
609,37	64148,93
609,57	64157,95
609,76	64169,82
609,95	64140,74
610,15	64133,57
610,34	64158,97
610,53	64171,46
610,73	63784,08
610,92	62375,14
611,11	60536,90
611,31	55737,19
611,50	31494,51
611,70	22275,82
611,89	14781,66
612,08	12038,94
612,28	646,03
612,47	594,68
612,66	606,13
612,86	613,29
613,05	628,80
613,24	676,45
613,44	676,47
613,63	686,10
613,82	741,63
614,02	862,64
614,21	1125,36
614,41	1469,61
614,60	2016,39
614,79	2660,43
614,99	3306,30
615,18	3823,04
615,37	3939,83
615,57	3884,72
615,76	3426,88
615,95	2809,76
616,15	2116,54
616,34	1575,97
616,53	1208,19
616,73	1013,34
616,92	840,89
617,11	723,09
617,30	601,51
617,50	575,41
617,69	506,30
617,88	506,65
618,08	464,61
618,27	473,82
618,46	465,75
618,66	458,04
618,85	449,49
619,04	433,94
619,24	451,44
619,43	432,33
619,62	434,27
619,82	442,74
620,01	421,90
620,20	468,59
620,39	425,46
620,59	423,48
620,78	441,35
620,97	442,73
621,17	413,25
621,36	427,43
621,55	415,15
621,74	405,45
621,94	406,58
622,13	424,23
622,32	410,38
622,52	416,19
622,71	395,49
622,90	381,32
623,09	401,30
623,29	386,22
623,48	380,12
623,67	388,26
623,86	380,74
624,06	382,64
624,25	365,03
624,44	397,17
624,64	382,18
624,83	377,22
625,02	355,81
625,21	361,00
625,41	366,70
625,60	371,05
625,79	367,65
625,98	368,14
626,18	349,93
626,37	348,55
626,56	347,57
626,75	349,75
626,95	337,47
627,14	347,89
627,33	342,92
627,52	337,99
627,72	346,15
627,91	359,67
628,10	323,66
628,29	338,04
628,49	317,48
628,68	332,62
628,87	329,36
629,06	349,60
629,25	342,19
629,45	331,11
629,64	337,45
629,83	351,40
630,02	324,05
630,22	356,08
630,41	338,72
630,60	337,93
630,79	328,88
630,98	324,32
631,18	306,50
631,37	322,58
631,56	322,63
631,75	294,49
631,94	303,89
632,14	319,69
632,33	305,72
632,52	282,29
632,71	309,88
632,90	330,64
633,10	299,60
633,29	281,44
633,48	312,02
633,67	299,51
633,86	305,46
634,06	298,19
634,25	301,07
634,44	297,83
634,63	284,58
634,82	292,40
635,02	289,66
635,21	300,20
635,40	276,09
635,59	289,83
635,78	312,20
635,97	304,26
636,17	273,37
636,36	293,07
636,55	279,29
636,74	305,58
636,93	257,46
637,12	277,29
637,32	289,68
637,51	271,06
637,70	294,55
637,89	288,64
638,08	292,69
638,27	276,42
638,47	277,45
638,66	277,33
638,85	259,20
639,04	253,57
639,23	282,54
639,42	275,33
639,62	240,70
639,81	244,98
640,00	266,19
640,19	247,72
640,38	274,72
640,57	318,46
640,76	321,11
640,95	341,54
641,15	325,90
641,34	317,25
641,53	293,04
641,72	281,45
641,91	271,45
642,10	266,98
642,29	263,98
642,49	248,65
642,68	253,17
642,87	238,69
643,06	231,27
643,25	231,25
643,44	230,51
643,63	243,60
643,82	228,57
644,01	227,02
644,21	227,61
644,40	230,79
644,59	230,31
644,78	221,68
644,97	215,03
645,16	227,47
645,35	216,11
645,54	227,30
645,73	219,67
645,92	211,70
646,12	227,61
646,31	202,28
646,50	219,00
646,69	197,72
646,88	225,44
647,07	225,19
647,26	212,34
647,45	234,24
647,64	228,62
647,83	216,03
648,02	200,05
648,22	212,44
648,41	237,85
648,60	244,05
648,79	259,64
648,98	280,22
649,17	264,44
649,36	274,79
649,55	256,05
649,74	271,60
649,93	230,05
650,12	228,01
650,31	222,56
650,50	202,81
650,69	227,27
650,88	214,85
651,08	220,06
651,27	195,40
651,46	217,23
651,65	205,39
651,84	183,33
652,03	204,74
652,22	199,85
652,41	172,87
652,60	205,94
652,79	211,26
652,98	201,42
653,17	219,69
653,36	214,21
653,55	203,89
653,74	210,44
653,93	200,17
654,12	182,41
654,31	187,72
654,50	190,17
654,69	191,57
654,88	189,53
655,07	195,87
655,26	190,01
655,45	186,62
655,64	192,52
655,83	193,14
656,02	181,05
656,21	174,62
656,40	177,07
656,59	208,77
656,78	173,32
656,97	182,79
657,17	186,90
657,36	160,52
657,55	153,88
657,74	196,87
657,93	202,15
658,12	184,58
658,31	176,13
658,50	172,18
658,69	180,56
658,87	180,82
659,06	179,83
659,25	179,35
659,44	192,52
659,63	159,39
659,82	198,99
660,01	166,21
660,20	183,51
660,39	186,23
660,58	188,83
660,77	184,18
660,96	175,99
661,15	149,14
661,34	165,88
661,53	166,68
661,72	135,67
661,91	168,23
662,10	138,93
662,29	162,31
662,48	163,86
662,67	179,49
662,86	166,18
663,05	170,40
663,24	166,94
663,43	153,05
663,62	144,24
663,81	166,87
664,00	139,47
664,19	163,48
664,38	123,77
664,57	156,05
664,76	173,74
664,94	153,22
665,13	159,22
665,32	158,38
665,51	152,76
665,70	157,50
665,89	156,21
666,08	146,21
666,27	161,14
666,46	184,28
666,65	195,68
666,84	211,50
667,03	237,45
667,22	216,38
667,41	235,92
667,60	209,48
667,78	179,25
667,97	171,49
668,16	168,22
668,35	159,94
668,54	162,15
668,73	157,99
668,92	135,25
669,11	145,68
669,30	113,65
669,49	126,47
669,68	118,65
669,86	147,57
670,05	127,14
670,24	144,87
670,43	136,76
670,62	154,70
670,81	134,55
671,00	122,92
671,19	135,02
671,38	139,08
671,57	143,49
671,75	123,72
671,94	125,97
672,13	129,57
672,32	152,02
672,51	135,14
672,70	128,57
672,89	129,65
673,08	124,72
673,26	132,29
673,45	115,90
673,64	132,42
673,83	131,26
674,02	169,53
674,21	187,67
674,40	223,26
674,59	262,86
674,77	245,13
674,96	248,29
675,15	239,21
675,34	201,49
675,53	183,34
675,72	164,72
675,91	152,75
676,09	131,42
676,28	118,62
676,47	135,25
676,66	98,70
676,85	104,80
677,04	121,89
677,22	123,29
677,41	116,63
677,60	105,60
677,79	120,19
677,98	96,95
678,17	128,69
678,36	110,47
678,54	125,04
678,73	110,01
678,92	101,73
679,11	96,76
679,30	107,25
679,48	119,34
679,67	126,29
679,86	111,38
680,05	126,28
680,24	130,26
680,43	89,65
680,61	100,41
680,80	124,58
680,99	122,40
681,18	115,44
681,37	130,17
681,55	112,23
681,74	105,55
681,93	89,90
682,12	89,58
682,31	132,93
682,49	132,39
682,68	86,10
682,87	105,76
683,06	115,84
683,25	111,01
683,43	93,05
683,62	103,19
683,81	102,55
684,00	94,33
684,19	101,50
684,37	104,62
684,56	97,28
684,75	101,69
684,94	114,52
685,12	108,81
685,31	100,98
685,50	111,43
685,69	138,52
685,88	143,46
686,06	162,15
686,25	195,50
686,44	194,00
686,63	229,71
686,81	205,36
687,00	203,96
687,19	173,42
687,38	165,11
687,56	153,73
687,75	114,64
687,94	124,99
688,13	111,08
688,31	127,12
688,50	127,91
688,69	114,57
688,88	114,05
689,06	93,39
689,25	109,59
689,44	113,12
689,63	110,08
689,81	113,79
690,00	96,28
690,19	94,14
690,38	126,07
690,56	106,01
690,75	100,53
690,94	76,14
691,13	104,72
691,31	86,83
691,50	88,99
691,69	105,48
691,87	112,73
692,06	82,44
692,25	102,03
692,44	122,78
692,62	112,03
692,81	134,31
693,00	163,91
693,18	120,95
693,37	164,51
693,56	134,26
693,75	132,82
693,93	163,06
694,12	134,94
694,31	113,92
694,49	142,10
694,68	161,48
694,87	403,72
695,05	1428,76
695,24	3478,82
695,43	6041,68
695,62	8506,27
695,80	10427,69
695,99	11212,80
696,18	10650,53
696,36	9080,99
696,55	6884,48
696,74	4929,31
696,92	3451,56
697,11	2468,85
697,30	1718,31
697,48	1234,59
697,67	884,92
697,86	591,64
698,04	402,03
698,23	304,90
698,42	237,50
698,60	185,01
698,79	175,34
698,98	163,16
699,16	119,18
699,35	105,87
699,54	135,66
699,72	111,36
699,91	107,33
700,10	100,30
700,28	100,19
700,47	94,30
700,66	83,56
700,84	108,87
701,03	97,68
701,21	91,91
701,40	106,42
701,59	101,36
701,77	143,04
701,96	161,86
702,15	181,75
702,33	188,64
702,52	202,77
702,71	173,48
702,89	208,45
703,08	152,78
703,26	146,82
703,45	128,44
703,64	135,75
703,82	145,09
704,01	102,43
704,20	127,54
704,38	104,63
704,57	85,04
704,75	119,34
704,94	179,80
705,13	447,69
705,31	1370,04
705,50	2853,35
705,68	4489,66
705,87	5972,13
706,06	6868,74
706,24	7066,40
706,43	6335,32
706,61	5238,45
706,80	3910,95
706,99	2802,54
707,17	1981,97
707,36	1413,14
707,54	1004,74
707,73	721,83
707,92	491,88
708,10	373,99
708,29	272,82
708,47	197,80
708,66	172,76
708,84	145,06
709,03	124,92
709,22	120,06
709,40	105,94
709,59	104,76
709,77	108,30
709,96	92,86
710,14	112,39
710,33	106,45
710,52	119,06
710,70	120,84
710,89	78,12
711,07	111,13
711,26	103,30
711,44	100,75
711,63	96,40
711,81	93,09
712,00	92,51
712,19	98,55
712,37	79,12
712,56	103,38
712,74	94,75
712,93	80,07
713,11	145,16
713,30	220,76
713,48	326,48
713,67	439,18
713,85	579,35
714,04	657,99
714,22	659,91
714,41	623,37
714,59	523,72
714,78	400,02
714,97	329,76
715,15	261,32
715,34	222,26
715,52	177,80
715,71	145,67
715,89	126,83
716,08	134,52
716,26	111,86
716,45	99,08
716,63	94,89
716,82	92,12
717,00	105,58
717,19	97,09
717,37	122,87
717,56	107,30
717,74	102,42
717,93	114,71
718,11	107,89
718,30	77,04
718,48	101,24
718,67	62,01
718,85	77,66
719,04	96,13
719,22	94,29
719,41	108,09
719,59	94,41
719,78	110,78
719,96	104,30
720,15	114,87
720,33	132,45
720,52	119,64
720,70	113,67
720,88	115,83
721,07	92,72
721,25	105,93
721,44	108,15
721,62	100,72
721,81	118,58
721,99	76,63
722,18	92,85
722,36	95,95
722,55	79,72
722,73	90,90
722,92	88,15
723,10	85,65
723,28	87,46
723,47	102,54
723,65	89,22
723,84	89,42
724,02	93,96
724,21	117,39
724,39	87,46
724,58	87,02
724,76	67,45
724,94	96,93
725,13	88,32
725,31	95,33
725,50	105,65
725,68	195,43
725,87	427,55
726,05	906,89
726,23	1451,96
726,42	1909,35
726,60	2279,18
726,79	2351,41
726,97	2195,69
727,16	1776,46
727,34	1353,08
727,52	952,19
727,71	670,23
727,89	504,63
728,08	360,16
728,26	264,30
728,44	225,38
728,63	176,97
728,81	151,38
729,00	116,26
729,18	119,79
729,36	125,86
729,55	95,04
729,73	119,06
729,92	123,44
730,10	100,29
730,28	93,37
730,47	118,54
730,65	119,79
730,84	128,84
731,02	105,17
731,20	118,99
731,39	103,00
731,57	117,02
731,75	108,72
731,94	84,84
732,12	97,95
732,31	91,96
732,49	110,29
732,67	76,72
732,86	86,79
733,04	90,36
733,22	110,52
733,41	106,52
733,59	107,51
733,78	105,96
733,96	118,14
734,14	102,94
734,33	138,66
734,51	144,61
734,69	146,00
734,88	150,74
735,06	160,88
735,24	153,32
735,43	157,90
735,61	134,07
735,79	148,68
735,98	193,94
736,16	166,70
736,34	219,11
736,53	284,62
736,71	520,77
736,89	1528,26
737,08	3525,53
737,26	6109,07
737,44	8671,75
737,63	10603,95
737,81	11801,60
737,99	11574,34
738,18	10088,29
738,36	8041,62
738,54	5803,33
738,73	4175,16
738,91	2843,10
739,09	1895,16
739,28	1163,77
739,46	745,79
739,64	532,49
739,82	377,30
740,01	283,38
740,19	270,18
740,37	206,82
740,56	179,70
740,74	164,59
740,92	154,81
741,11	145,93
741,29	130,42
741,47	135,17
741,65	114,73
741,84	130,56
742,02	110,54
742,20	136,07
742,39	119,89
742,57	141,09
742,75	137,42
742,93	151,24
743,12	129,12
743,30	156,44
743,48	130,00
743,67	106,49
743,85	127,02
744,03	113,37
744,21	108,24
744,40	102,78
744,58	96,23
744,76	96,29
744,94	104,56
745,13	134,60
745,31	97,07
745,49	129,83
745,67	106,79
745,86	92,58
746,04	99,95
746,22	130,44
746,40	132,56
746,59	111,21
746,77	113,48
746,95	112,66
747,13	121,44
747,32	137,73
747,50	158,81
747,68	136,95
747,86	132,93
748,05	148,58
748,23	135,81
748,41	123,38
748,59	219,30
748,77	518,13
748,96	1569,21
749,14	3321,71
749,32	5325,05
749,50	7197,94
749,69	8781,72
749,87	9646,44
750,05	10340,20
750,23	10757,08
750,41	11083,43
750,60	11388,94
750,78	11518,37
750,96	11062,42
751,14	9748,25
751,32	7952,77
751,51	5895,83
751,69	4114,08
751,87	2672,19
752,05	1741,04
752,23	1117,08
752,42	726,82
752,60	541,61
752,78	405,93
752,96	331,79
753,14	258,78
753,33	228,37
753,51	193,46
753,69	176,76
753,87	167,00
754,05	149,45
754,23	140,08
754,42	147,15
754,60	133,15
754,78	117,97
754,96	124,07
755,14	119,33
755,32	105,38
755,51	90,91
755,69	116,26
755,87	109,26
756,05	95,57
756,23	120,75
756,41	102,76
756,60	123,24
756,78	118,61
756,96	103,68
757,14	125,00
757,32	119,80
757,50	99,64
757,68	123,34
757,87	108,58
758,05	131,71
758,23	125,23
758,41	117,27
758,59	110,48
758,77	101,85
758,95	121,91
759,14	125,26
759,32	147,65
759,50	136,72
759,68	132,47
759,86	163,12
760,04	170,25
760,22	178,80
760,40	197,69
760,59	195,16
760,77	183,03
760,95	199,81
761,13	202,72
761,31	192,07
761,49	240,91
761,67	429,74
761,85	1687,22
762,03	6000,97
762,22	14474,73
762,40	25377,79
762,58	36094,87
762,76	42921,65
762,94	43645,66
763,12	42842,61
763,30	39520,12
763,48	29837,71
763,66	20144,33
763,84	12896,76
764,02	7985,31
764,21	5244,99
764,39	3555,53
764,57	2495,82
764,75	1891,63
764,93	1744,88
765,11	2250,68
765,29	3302,94
765,47	4518,48
765,65	5558,43
765,83	6152,27
766,01	6212,62
766,19	5508,13
766,37	4314,17
766,56	2988,34
766,74	1941,30
766,92	1226,35
767,10	806,03
767,28	576,73
767,46	439,56
767,64	376,70
767,82	313,63
768,00	273,56
768,18	299,71
768,36	463,66
768,54	875,92
768,72	1573,41
768,90	2365,41
769,08	2976,96
769,26	3329,46
769,44	3347,88
769,62	2922,89
769,80	2223,10
769,98	1532,72
770,16	1012,17
770,34	683,90
770,52	526,12
770,71	656,75
770,89	1760,06
771,07	4606,08
771,25	8489,44
771,43	12870,03
771,61	16241,30
771,79	18217,13
771,97	18018,59
772,15	15621,98
772,33	11840,15
772,51	7996,06
772,69	5052,53
772,87	3158,84
773,05	2042,29
773,23	1391,90
773,41	986,43
773,59	702,74
773,77	555,32
773,95	452,65
774,13	355,35
774,31	285,02
774,49	260,15
774,67	231,71
774,85	222,37
775,03	183,47
775,21	178,23
775,39	132,44
775,57	124,63
775,75	102,46
775,93	105,95
776,10	102,98
776,28	114,39
776,46	125,01
776,64	107,41
776,82	100,47
777,00	102,57
777,18	114,70
777,36	89,87
777,54	109,56
777,72	103,00
777,90	79,75
778,08	109,41
778,26	101,27
778,44	106,19
778,62	98,91
778,80	114,52
778,98	81,88
779,16	112,25
779,34	110,77
779,52	94,86
779,70	101,30
779,88	87,28
780,05	104,90
780,23	121,13
780,41	103,08
780,59	87,51
780,77	91,22
780,95	120,32
781,13	95,65
781,31	82,20
781,49	85,97
781,67	94,40
781,85	100,68
782,03	78,31
782,21	114,33
782,39	82,78
782,56	68,33
782,74	102,48
782,92	91,81
783,10	110,57
783,28	107,23
783,46	82,74
783,64	104,02
783,82	79,57
784,00	97,83
784,18	122,63
784,35	128,89
784,53	96,92
784,71	112,76
784,89	110,91
785,07	86,36
785,25	98,61
785,43	93,50
785,61	92,95
785,79	79,69
785,96	107,21
786,14	109,54
786,32	103,72
786,50	92,45
786,68	118,08
786,86	70,72
787,04	80,43
787,22	98,13
787,39	93,72
787,57	96,72
787,75	97,52
787,93	110,73
788,11	97,14
788,29	109,34
788,47	98,19
788,65	102,81
788,82	122,92
789,00	110,82
789,18	67,64
789,36	131,72
789,54	92,45
789,72	73,05
789,89	92,99
790,07	90,54
790,25	93,49
790,43	62,43
790,61	68,33
790,79	100,60
790,96	93,48
791,14	115,91
791,32	87,09
791,50	118,06
791,68	105,25
791,86	105,31
792,03	114,08
792,21	106,52
792,39	107,53
792,57	115,21
792,75	121,79
792,93	133,36
793,10	216,05
793,28	716,81
793,46	2111,61
793,64	4190,78
793,82	6208,38
793,99	7881,29
794,17	8611,68
794,35	8580,32
794,53	7279,07
794,71	5511,88
794,88	3778,95
795,06	2557,55
795,24	1671,24
795,42	1164,60
795,60	842,70
795,77	632,42
795,95	474,52
796,13	378,41
796,31	305,07
796,49	260,45
796,66	241,91
796,84	207,58
797,02	187,18
797,20	167,10
797,37	154,51
797,55	150,64
797,73	139,88
797,91	125,13
798,08	117,35
798,26	141,66
798,44	140,68
798,62	148,82
798,80	191,05
798,97	268,48
799,15	676,84
799,33	1589,19
799,51	2711,31
799,68	3771,73
799,86	4786,37
800,04	5992,00
800,22	7355,68
800,39	8620,83
800,57	9356,77
800,75	9720,37
800,93	9418,56
801,10	8485,91
801,28	6710,65
801,46	4916,78
801,63	3392,31
801,81	2361,64
801,99	1636,06
802,17	1209,26
802,34	875,41
802,52	695,61
802,70	523,01
802,88	431,68
803,05	360,80
803,23	278,81
803,41	265,81
803,58	236,06
803,76	215,36
803,94	186,10
804,12	172,10
804,29	180,02
804,47	147,45
804,65	150,48
804,82	130,38
805,00	130,41
805,18	125,82
805,35	124,68
805,53	111,57
805,71	123,67
805,89	118,58
806,06	105,72
806,24	118,82
806,42	139,12
806,59	134,34
806,77	129,58
806,95	142,36
807,12	131,77
807,30	151,45
807,48	174,40
807,65	146,22
807,83	170,64
808,01	177,28
808,18	206,21
808,36	206,47
808,54	269,28
808,71	517,07
808,89	1371,89
809,07	3145,49
809,24	5458,38
809,42	7700,07
809,60	9309,11
809,77	10356,65
809,95	11552,65
810,13	13840,58
810,30	18050,06
810,48	23000,92
810,66	27517,89
810,83	30211,00
811,01	30523,81
811,18	27344,89
811,36	22539,13
811,54	16520,39
811,71	11673,55
811,89	8254,38
812,07	6042,71
812,24	4433,69
812,42	3375,28
812,59	2555,35
812,77	1968,41
812,95	1554,38
813,12	1223,04
813,30	970,35
813,48	798,78
813,65	674,20
813,83	576,49
814,00	514,89
814,18	422,65
814,36	384,91
814,53	322,67
814,71	303,16
814,88	267,21
815,06	252,39
815,24	237,43
815,41	216,36
815,59	238,31
815,76	238,93
815,94	274,77
816,12	280,06
816,29	378,01
816,47	516,38
816,64	1055,03
816,82	2692,84
817,00	5923,08
817,17	10315,52
817,35	14954,03
817,52	18239,96
817,70	20410,11
817,87	21287,78
818,05	22567,64
818,23	24913,57
818,40	29223,42
818,58	32856,71
818,75	35902,00
818,93	35718,79
819,10	32962,64
819,28	26515,83
819,46	19836,25
819,63	13819,67
819,81	9844,25
819,98	7262,91
820,16	5409,79
820,33	4145,67
820,51	3198,22
820,68	2488,89
820,86	1972,14
821,03	1552,87
821,21	1255,74
821,39	1023,44
821,56	904,87
821,74	763,30
821,91	644,84
822,09	540,75
822,26	449,94
822,44	398,48
822,61	333,45
822,79	296,55
822,96	266,37
823,14	207,91
823,31	166,53
823,49	167,47
823,66	167,91
823,84	147,91
824,01	151,99
824,19	143,48
824,36	162,40
824,54	184,70
824,71	255,83
824,89	461,34
825,06	997,18
825,24	1861,20
825,41	2880,11
825,59	3713,17
825,76	4315,96
825,94	4453,00
826,11	4213,87
826,29	3527,11
826,46	2746,46
826,64	1992,17
826,81	1445,34
826,99	1089,45
827,16	832,61
827,34	628,57
827,51	481,89
827,69	396,10
827,86	332,52
828,04	277,28
828,21	220,24
828,39	191,47
828,56	177,78
828,74	156,64
828,91	147,16
829,09	126,66
829,26	131,73
829,43	84,46
829,61	113,53
829,78	102,44
829,96	104,77
830,13	82,17
830,31	81,38
830,48	103,21
830,66	76,14
830,83	83,92
831,01	61,25
831,18	82,60
831,35	70,20
831,53	70,33
831,70	85,40
831,88	68,87
832,05	77,81
832,23	82,74
832,40	52,87
832,57	72,53
832,75	82,43
832,92	47,12
833,10	83,01
833,27	101,81
833,45	68,56
833,62	65,86
833,79	64,75
833,97	72,13
834,14	91,51
834,32	72,57
834,49	57,33
834,66	62,42
834,84	83,65
835,01	52,94
835,19	57,29
835,36	60,00
835,53	56,92
835,71	59,51
835,88	82,63
836,06	46,79
836,23	71,87
836,40	102,76
836,58	77,20
836,75	74,94
836,93	77,10
837,10	93,30
837,27	87,56
837,45	100,92
837,62	71,57
837,79	73,04
837,97	101,07
838,14	104,87
838,32	116,90
838,49	126,44
838,66	128,99
838,84	199,42
839,01	229,26
839,18	357,63
839,36	730,94
839,53	1358,16
839,70	2350,51
839,88	3415,33
840,05	4366,13
840,23	4934,80
840,40	5148,34
840,57	4927,50
840,75	4455,05
840,92	3930,47
841,09	3838,89
841,27	4311,31
841,44	5219,81
841,61	6196,91
841,79	6912,89
841,96	7173,42
842,13	6974,54
842,31	6201,59
842,48	5123,85
842,65	4068,47
842,83	3111,23
843,00	2366,04
843,17	1898,39
843,35	1467,36
843,52	1142,54
843,69	876,07
843,86	708,74
844,04	539,11
844,21	436,99
844,38	392,40
844,56	289,89
844,73	246,15
844,90	223,44
845,08	197,73
845,25	163,81
845,42	166,99
845,60	121,20
845,77	127,16
845,94	111,86
846,11	103,45
846,29	84,15
846,46	83,71
846,63	83,11
846,81	63,36
846,98	80,25
847,15	60,91
847,32	64,21
847,50	55,86
847,67	52,83
847,84	61,23
848,01	70,67
848,19	52,48
848,36	63,05
848,53	67,36
848,71	79,02
848,88	47,09
849,05	73,15
849,22	63,24
849,40	76,60
849,57	85,06
849,74	49,76
849,91	73,04
850,09	63,13
850,26	86,86
850,43	109,88
850,60	160,54
850,78	252,53
850,95	412,41
851,12	655,64
851,29	941,18
851,47	1210,64
851,64	1357,44
851,81	1438,77
851,98	1354,11
852,15	1196,70
852,33	933,40
852,50	741,75
852,67	576,03
852,84	458,17
853,02	376,97
853,19	278,36
853,36	252,09
853,53	210,60
853,70	173,88
853,88	165,58
854,05	123,16
854,22	123,56
854,39	106,04
854,56	88,75
854,74	85,48
854,91	60,22
855,08	87,03
855,25	71,07
855,42	72,98
855,60	59,17
855,77	71,36
855,94	65,13
856,11	45,35
856,28	59,74
856,46	46,44
856,63	55,52
856,80	52,36
856,97	39,92
857,14	63,22
857,31	39,17
857,49	47,63
857,66	52,41
857,83	41,28
858,00	44,19
858,17	56,98
858,34	38,91
858,52	63,28
858,69	35,31
858,86	59,87
859,03	40,20
859,20	46,20
859,37	45,99
859,55	34,52
859,72	27,14
859,89	28,68
860,06	38,32
860,23	63,59
860,40	52,04
860,57	58,09
860,75	42,82
860,92	53,28
861,09	32,06
861,26	61,91
861,43	37,58
861,60	22,51
861,77	42,58
861,95	38,03
862,12	44,02
862,29	34,22
862,46	36,03
862,63	33,59
862,80	44,65
862,97	23,89
863,14	30,18
863,31	66,06
863,49	15,30
863,66	35,57
863,83	36,52
864,00	29,92
864,17	38,91
864,34	37,39
864,51	60,81
864,68	45,96
864,85	49,03
865,02	42,55
865,20	52,82
865,37	55,48
865,54	54,88
865,71	76,77
865,88	90,24
866,05	112,90
866,22	151,21
866,39	196,36
866,56	178,43
866,73	229,93
866,90	207,74
867,07	175,53
867,25	146,69
867,42	126,53
867,59	102,13
867,76	98,43
867,93	71,65
868,10	80,69
868,27	76,43
868,44	47,72
868,61	45,86
868,78	36,57
868,95	33,65
869,12	57,37
869,29	42,60
869,46	47,43
869,63	47,77
869,80	54,52
869,97	30,18
870,14	42,39
870,32	22,93
870,49	27,41
870,66	39,20
870,83	16,09
871,00	19,74
871,17	45,98
871,34	46,89
871,51	41,76
871,68	27,29
871,85	14,71
872,02	28,53
872,19	18,29
872,36	15,77
872,53	32,95
872,70	40,58
872,87	31,26
873,04	46,85
873,21	17,30
873,38	43,24
873,55	44,66
873,72	21,63
873,89	36,57
874,06	33,14
874,23	44,25
874,40	40,96
874,57	18,95
874,74	23,67
874,91	51,06
875,08	35,58
875,25	21,84
875,42	40,07
875,59	27,04
875,76	38,36
875,93	16,35
876,10	48,39
876,27	14,74
876,44	51,43
876,61	21,53
876,78	34,31
876,95	27,18
877,12	25,98
877,29	37,35
877,46	16,14
877,62	30,71
877,79	18,24
877,96	29,50
878,13	20,30
878,30	32,14
878,47	12,75
878,64	3,55
878,81	25,75
878,98	23,22
879,15	34,51
879,32	25,34
879,49	32,25
879,66	19,47
879,83	28,00
880,00	19,71
880,17	28,98
880,34	21,30
880,51	38,72
880,67	14,05
880,84	21,75
881,01	44,92
881,18	16,38
881,35	10,22
881,52	29,69
881,69	6,04
881,86	30,76
882,03	36,89
882,20	19,71
882,37	27,31
882,54	39,17
882,70	7,38
882,87	16,44
883,04	22,97
883,21	25,15
883,38	35,31
883,55	26,33
883,72	23,49
883,89	9,52
884,06	22,89
884,23	31,82
884,39	24,22
884,56	19,13
884,73	26,29
884,90	34,98
885,07	41,83
885,24	23,49
885,41	31,78
885,58	6,66
885,74	25,50
885,91	37,93
886,08	43,55
886,25	20,43
886,42	36,22
886,59	29,64
886,76	32,23
886,93	46,94
887,09	26,75
887,26	23,08
887,43	41,86
887,60	35,22
887,77	36,21
887,94	8,14
888,10	13,27
888,27	31,34
888,44	29,73
888,61	36,42
888,78	32,37
888,95	39,12
889,12	13,35
889,28	20,93
889,45	22,53
889,62	38,09
889,79	35,56
889,96	23,62
890,13	46,94
890,29	31,74
890,46	23,06
890,63	13,69
890,80	31,10
890,97	29,91
891,13	34,17
891,30	16,12
891,47	28,91
891,64	27,85
891,81	13,60
891,98	21,97
892,14	11,69
892,31	38,65
892,48	-2,08
892,65	23,70
892,82	24,65
892,98	27,30
893,15	42,13
893,32	21,90
>>>>>End Processed Spectral Data<<<<<
