SpectraSuite Datei
++++++++++++++++++++++++++++++++++++
Datum: Mon Mar 09 09:58:59 CET 2020
Benutzer: Lichtquellen1
Dark-Spektrum vorhanden: Ja
Referenz-Spektrum vorhanden: Nein
Zahl der probierten Teilspektren: 1
Spektrometer: USB4F05832
Integrationszeit (usec): 200000 (USB4F05832)
Spektren Durchschnitt berechnet: 5 (USB4F05832)
Boxcar Glättung: 0 (USB4F05832)
Dunkelstromkorrektur: Nein (USB4F05832)
Puls/Lampe aktiviert: Nein (USB4F05832)
Correct for Detector Non-linearity: Nein (USB4F05832)
Streulichtkorrektur: Nein (USB4F05832)
Anzahl Pixel in verarbeitetem Spektrum: 3648
>>>>>Begin Processed Spectral Data<<<<<
177,54	-55,70
177,75	-55,70
177,97	-55,70
178,19	-77,41
178,41	-98,71
178,63	-105,27
178,85	-95,03
179,07	-129,02
179,29	-153,60
179,51	-123,70
179,73	-137,21
179,95	-108,95
180,17	-129,84
180,39	-149,09
180,61	-166,30
180,83	-137,62
181,05	-104,04
181,27	-55,70
181,49	-101,58
181,71	-130,25
181,92	-132,30
182,14	-101,99
182,36	-83,56
182,58	-142,95
182,80	-86,01
183,02	-92,98
183,24	-144,18
183,46	-112,64
183,68	-97,07
183,90	-97,89
184,12	-113,46
184,34	-60,62
184,56	-109,36
184,78	-72,50
185,00	-92,98
185,21	-109,77
185,43	-101,99
185,65	-96,66
185,87	-107,31
186,09	-86,42
186,31	-149,09
186,53	-124,52
186,75	-124,52
186,97	-63,08
187,19	-138,03
187,41	-122,47
187,63	-115,92
187,84	-77,41
188,06	-112,23
188,28	-127,38
188,50	-122,06
188,72	-155,24
188,94	-79,05
189,16	-69,22
189,38	-119,60
189,60	-61,85
189,82	-107,31
190,03	-122,88
190,25	-116,73
190,47	-120,83
190,69	-114,28
190,91	-108,95
191,13	-54,89
191,35	-95,03
191,57	-90,52
191,79	-81,92
192,01	-104,04
192,22	-97,07
192,44	-69,22
192,66	-99,12
192,88	-96,25
193,10	-89,70
193,32	-130,25
193,54	-135,58
193,76	-128,61
193,98	-94,62
194,19	-90,93
194,41	-105,68
194,63	-96,66
194,85	-116,73
195,07	-142,54
195,29	-66,35
195,51	-151,96
195,73	-180,63
195,94	-86,83
196,16	-159,74
196,38	-126,56
196,60	-113,46
196,82	-88,47
197,04	-136,39
197,26	-144,59
197,48	-61,85
197,69	-85,20
197,91	-47,92
198,13	-89,29
198,35	-157,28
198,57	-52,84
198,79	-118,78
199,01	-70,86
199,22	-82,74
199,44	-120,42
199,66	-115,10
199,88	-95,03
200,10	-144,59
200,32	-109,36
200,54	-126,97
200,75	-137,21
200,97	-92,98
201,19	-126,97
201,41	-140,49
201,63	-52,84
201,85	-77,82
202,06	-141,31
202,28	-122,88
202,50	-103,63
202,72	-94,21
202,94	-112,23
203,16	-102,81
203,38	-70,04
203,59	-71,68
203,81	-125,75
204,03	-107,31
204,25	-103,63
204,47	-94,62
204,69	-110,59
204,90	-120,42
205,12	-101,58
205,34	-116,73
205,56	-62,26
205,78	-97,48
206,00	-117,14
206,21	-110,59
206,43	-74,55
206,65	-130,66
206,87	-93,80
207,09	-121,65
207,30	-72,50
207,52	-139,26
207,74	-80,69
207,96	-88,06
208,18	-109,77
208,40	-137,62
208,61	-68,81
208,83	-113,46
209,05	-144,18
209,27	-56,93
209,49	-96,66
209,70	-108,13
209,92	-166,30
210,14	-108,13
210,36	-86,01
210,58	-74,14
210,79	-103,63
211,01	-111,00
211,23	-124,93
211,45	-111,00
211,67	-61,03
211,88	-94,62
212,10	-131,48
212,32	-81,10
212,54	-101,17
212,76	-89,29
212,97	-111,00
213,19	-56,93
213,41	-107,31
213,63	-67,58
213,85	-131,48
214,06	-70,86
214,28	-84,38
214,50	-78,64
214,72	-97,89
214,94	-111,00
215,15	-94,21
215,37	-88,47
215,59	-70,86
215,81	-141,31
216,02	-158,10
216,24	-146,63
216,46	-53,66
216,68	-123,70
216,90	-104,04
217,11	-148,27
217,33	-70,86
217,55	-140,08
217,77	-78,64
217,98	-83,97
218,20	-117,14
218,42	-134,76
218,64	-141,72
218,85	-95,44
219,07	-128,20
219,29	-103,63
219,51	-98,71
219,73	-99,94
219,94	-103,22
220,16	-92,57
220,38	-96,66
220,60	-109,77
220,81	-95,03
221,03	-115,92
221,25	-91,34
221,47	-44,65
221,68	-92,57
221,90	-50,38
222,12	-88,88
222,34	-113,46
222,55	-53,66
222,77	-76,18
222,99	-82,74
223,21	-116,73
223,42	-110,59
223,64	-79,87
223,86	-121,65
224,08	-148,68
224,29	-121,65
224,51	-100,35
224,73	-91,75
224,94	-55,70
225,16	-93,80
225,38	-108,13
225,60	-119,19
225,81	-70,86
226,03	-135,99
226,25	-131,89
226,47	-85,61
226,68	-151,96
226,90	-123,70
227,12	-115,51
227,33	-122,47
227,55	-86,01
227,77	-114,69
227,99	-104,04
228,20	-90,11
228,42	-123,29
228,64	-114,69
228,86	-97,89
229,07	-62,26
229,29	-51,61
229,51	-35,23
229,72	-92,16
229,94	-78,64
230,16	-95,84
230,38	-58,57
230,59	-102,81
230,81	-117,96
231,03	-109,36
231,24	-103,22
231,46	-99,94
231,68	-109,77
231,89	-106,49
232,11	-68,81
232,33	-86,42
232,55	-137,62
232,76	-131,07
232,98	-74,14
233,20	-103,63
233,41	-67,17
233,63	-121,24
233,85	-91,75
234,06	-68,40
234,28	-83,15
234,50	-72,50
234,71	-88,47
234,93	-83,15
235,15	-125,34
235,37	-49,15
235,58	-72,91
235,80	-84,79
236,02	-93,39
236,23	-101,99
236,45	-112,64
236,67	-112,23
236,88	-93,80
237,10	-117,14
237,32	-76,59
237,53	-104,86
237,75	-98,30
237,97	-92,57
238,18	-65,54
238,40	-100,76
238,62	-103,22
238,83	-92,57
239,05	-79,87
239,27	-127,79
239,48	-83,97
239,70	-118,78
239,92	-132,71
240,13	-96,25
240,35	-106,49
240,57	-100,76
240,78	-126,97
241,00	-97,89
241,22	-117,55
241,43	-141,31
241,65	-117,14
241,87	-117,96
242,08	-93,39
242,30	-56,93
242,52	-105,68
242,73	-86,83
242,95	-86,83
243,16	-75,77
243,38	-88,06
243,60	-106,08
243,81	-92,16
244,03	-107,72
244,25	-144,59
244,46	-52,84
244,68	-92,16
244,90	-129,84
245,11	-88,47
245,33	-55,70
245,55	-115,10
245,76	-124,11
245,98	-98,71
246,19	-109,36
246,41	-114,69
246,63	-108,95
246,84	-120,83
247,06	-98,30
247,28	-54,89
247,49	-80,28
247,71	-50,38
247,92	-132,30
248,14	-107,72
248,36	-101,17
248,57	-82,33
248,79	-100,35
249,01	-102,81
249,22	-93,39
249,44	-92,57
249,65	-124,52
249,87	-83,15
250,09	-108,13
250,30	-69,63
250,52	-116,73
250,73	-120,42
250,95	-120,01
251,17	-92,57
251,38	-95,84
251,60	-118,37
251,81	-103,63
252,03	-124,52
252,25	-98,71
252,46	-60,62
252,68	-95,44
252,89	-131,48
253,11	-102,40
253,33	-99,53
253,54	-74,96
253,76	-79,46
253,97	-134,35
254,19	-93,80
254,41	-77,41
254,62	-147,45
254,84	-73,73
255,05	-66,76
255,27	-115,92
255,49	-100,35
255,70	-111,41
255,92	-113,46
256,13	-46,69
256,35	-89,29
256,56	-77,00
256,78	-103,63
257,00	-97,07
257,21	-84,38
257,43	-71,27
257,64	-70,86
257,86	-104,45
258,08	-103,22
258,29	-155,65
258,51	-77,00
258,72	-78,64
258,94	-92,98
259,15	-126,97
259,37	-99,94
259,59	-66,35
259,80	-85,61
260,02	-68,40
260,23	-111,41
260,45	-145,41
260,66	-118,78
260,88	-63,90
261,09	-82,33
261,31	-135,17
261,53	-62,26
261,74	-88,47
261,96	-65,53
262,17	-71,68
262,39	-102,81
262,60	-121,24
262,82	-88,06
263,03	-60,62
263,25	-92,98
263,46	-120,83
263,68	-67,99
263,90	-131,89
264,11	-124,93
264,33	-106,90
264,54	-71,27
264,76	-98,71
264,97	-131,89
265,19	-70,86
265,40	-58,98
265,62	-72,09
265,83	-141,31
266,05	-65,13
266,26	-69,63
266,48	-142,54
266,70	-104,86
266,91	-106,08
267,13	-72,91
267,34	-94,21
267,56	-71,68
267,77	-61,03
267,99	-85,61
268,20	-131,89
268,42	-91,75
268,63	-70,86
268,85	-115,10
269,06	-113,87
269,28	-99,53
269,49	-90,52
269,71	-109,36
269,92	-127,79
270,14	-73,73
270,35	-70,86
270,57	-55,70
270,78	-127,79
271,00	-54,89
271,21	-91,34
271,43	-70,04
271,64	-108,95
271,86	-106,90
272,07	-62,67
272,29	-120,83
272,50	-120,83
272,72	-93,80
272,93	-83,97
273,15	-113,05
273,36	-79,87
273,58	-92,16
273,79	-120,42
274,01	-101,17
274,22	-57,75
274,44	-108,13
274,65	-131,07
274,87	-79,05
275,08	-106,90
275,30	-105,27
275,51	-97,89
275,73	-101,58
275,94	-109,77
276,16	-114,69
276,37	-66,35
276,59	-103,63
276,80	-47,92
277,02	-93,39
277,23	-81,51
277,45	-91,75
277,66	-67,99
277,88	-83,15
278,09	-96,25
278,30	-74,96
278,52	-60,62
278,73	-138,85
278,95	-81,51
279,16	-86,83
279,38	-149,91
279,59	-73,73
279,81	-78,23
280,02	-95,03
280,24	-99,94
280,45	-81,10
280,67	-123,29
280,88	-80,28
281,09	-85,20
281,31	-60,21
281,52	-95,84
281,74	-141,31
281,95	-67,99
282,17	-89,70
282,38	-95,84
282,60	-71,27
282,81	-124,93
283,02	-104,04
283,24	-61,85
283,45	-70,45
283,67	-56,52
283,88	-73,73
284,10	-87,65
284,31	-87,65
284,53	-86,42
284,74	-71,68
284,95	-121,65
285,17	-96,25
285,38	-101,58
285,60	-91,34
285,81	-82,33
286,03	-111,41
286,24	-63,49
286,45	-88,47
286,67	-99,12
286,88	-89,29
287,10	-106,90
287,31	-27,85
287,53	-91,34
287,74	-58,16
287,95	-88,47
288,17	-80,69
288,38	-113,46
288,60	-59,80
288,81	-83,15
289,02	-88,88
289,24	-108,54
289,45	-88,88
289,67	-67,58
289,88	-89,70
290,10	-54,89
290,31	-48,74
290,52	-88,06
290,74	-89,29
290,95	-111,82
291,17	-120,83
291,38	-106,90
291,59	-80,69
291,81	-78,64
292,02	-73,32
292,24	-77,82
292,45	-115,51
292,66	-49,15
292,88	-92,98
293,09	-138,03
293,31	-99,53
293,52	-73,73
293,73	-66,35
293,95	-108,95
294,16	-107,31
294,37	-141,72
294,59	-80,28
294,80	-81,92
295,02	-60,62
295,23	-71,68
295,44	-90,11
295,66	-42,60
295,87	-104,86
296,09	-100,35
296,30	-108,95
296,51	-52,84
296,73	-72,09
296,94	-68,40
297,15	-112,23
297,37	-98,30
297,58	-50,38
297,79	-119,60
298,01	-125,34
298,22	-91,34
298,44	-20,48
298,65	-88,47
298,86	-126,56
299,08	-88,06
299,29	-43,83
299,50	-102,40
299,72	-58,98
299,93	-88,88
300,14	-95,84
300,36	-49,15
300,57	-83,56
300,79	-64,72
301,00	-77,82
301,21	-32,77
301,43	-64,31
301,64	-87,65
301,85	-96,66
302,07	-90,52
302,28	-85,20
302,49	-97,89
302,71	-76,18
302,92	-95,84
303,13	-74,14
303,35	-73,32
303,56	-101,99
303,77	-47,10
303,99	-68,40
304,20	-97,89
304,41	-79,46
304,63	-22,94
304,84	-105,27
305,05	-118,37
305,27	-79,87
305,48	-28,67
305,69	-93,80
305,91	-74,96
306,12	-81,10
306,33	-67,99
306,55	-126,97
306,76	-79,05
306,97	-87,24
307,19	-140,49
307,40	-38,09
307,61	-79,05
307,82	-50,38
308,04	-123,70
308,25	-99,12
308,46	-106,08
308,68	-74,55
308,89	-86,83
309,10	-78,23
309,32	-111,82
309,53	-52,43
309,74	-39,73
309,96	-51,20
310,17	-89,29
310,38	-35,23
310,59	-60,21
310,81	-64,31
311,02	-77,41
311,23	-53,66
311,45	-101,17
311,66	-96,25
311,87	-63,90
312,09	-48,33
312,30	-81,10
312,51	-79,05
312,72	-52,43
312,94	-91,75
313,15	-56,11
313,36	-61,44
313,58	-82,74
313,79	-95,03
314,00	-102,40
314,21	-50,38
314,43	-73,32
314,64	-73,32
314,85	-28,67
315,06	-56,93
315,28	-95,44
315,49	-119,19
315,70	-55,70
315,92	-61,44
316,13	-67,99
316,34	-58,57
316,55	-82,74
316,77	-70,04
316,98	-81,51
317,19	-75,37
317,40	-30,72
317,62	-49,15
317,83	-92,98
318,04	-18,02
318,25	-82,33
318,47	-78,23
318,68	-79,87
318,89	-40,96
319,11	-104,45
319,32	-54,89
319,53	-110,59
319,74	-70,45
319,96	-108,95
320,17	-71,27
320,38	-18,02
320,59	-81,10
320,81	-84,38
321,02	-111,41
321,23	-38,09
321,44	-130,25
321,65	-35,23
321,87	-60,21
322,08	-112,64
322,29	-71,27
322,50	-29,49
322,72	-53,25
322,93	-63,90
323,14	-27,44
323,35	-17,20
323,57	-62,67
323,78	-55,70
323,99	-24,58
324,20	-39,32
324,41	-55,70
324,63	-11,88
324,84	-4,92
325,05	-43,83
325,26	-21,30
325,48	-9,42
325,69	-2,46
325,90	-24,99
326,11	-13,11
326,32	-10,65
326,54	-12,29
326,75	-17,20
326,96	22,53
327,17	15,15
327,39	-59,80
327,60	67,17
327,81	35,23
328,02	62,67
328,23	59,39
328,45	22,94
328,66	68,81
328,87	74,55
329,08	43,01
329,29	68,40
329,51	92,16
329,72	67,58
329,93	156,46
330,14	108,13
330,35	134,35
330,56	134,76
330,78	160,56
330,99	178,17
331,20	193,74
331,41	188,00
331,62	254,36
331,84	219,95
332,05	240,43
332,26	317,84
332,47	302,69
332,68	314,57
332,90	403,45
333,11	380,51
333,32	423,11
333,53	451,37
333,74	487,83
333,95	442,77
334,17	506,26
334,38	523,05
334,59	586,13
334,80	590,22
335,01	564,01
335,22	585,72
335,44	642,65
335,65	663,54
335,86	682,38
336,07	723,34
336,28	761,03
336,49	787,65
336,71	755,29
336,92	814,27
337,13	859,33
337,34	869,98
337,55	926,91
337,76	926,50
337,97	937,56
338,19	1025,21
338,40	1069,45
338,61	1069,45
338,82	1158,33
339,03	1203,80
339,24	1245,17
339,45	1255,00
339,67	1233,29
339,88	1236,97
340,09	1290,63
340,30	1309,88
340,51	1284,49
340,72	1351,66
340,93	1415,56
341,15	1480,68
341,36	1441,77
341,57	1490,51
341,78	1610,52
341,99	1665,00
342,20	1683,02
342,41	1787,88
342,62	1825,56
342,84	1981,61
343,05	1942,29
343,26	2158,56
343,47	2189,28
343,68	2240,89
343,89	2273,25
344,10	2352,71
344,31	2359,67
344,53	2426,84
344,74	2492,79
344,95	2496,47
345,16	2575,94
345,37	2683,66
345,58	2719,29
345,79	2850,36
346,00	2859,37
346,21	2995,77
346,42	3049,02
346,64	3027,72
346,85	3138,72
347,06	3087,11
347,27	3141,58
347,48	3031,40
347,69	3006,83
347,90	3059,67
348,11	3071,13
348,32	3171,48
348,53	3275,11
348,75	3451,24
348,96	3402,50
349,17	3649,89
349,38	3630,23
349,59	3660,95
349,80	3936,20
350,01	3793,25
350,22	4105,77
350,43	3991,90
350,64	4214,72
350,85	4161,88
351,06	4236,43
351,28	4320,80
351,49	4360,13
351,70	4528,88
351,91	4518,23
352,12	4591,96
352,33	4462,93
352,54	4751,29
352,75	4702,55
352,96	4785,69
353,17	5041,69
353,38	5066,67
353,59	5315,71
353,80	5614,30
354,01	5592,18
354,22	5653,21
354,44	5876,85
354,65	5733,49
354,86	6027,99
355,07	5976,38
355,28	6008,74
355,49	6110,73
355,70	6120,56
355,91	6150,46
356,12	6111,55
356,33	6218,04
356,54	6281,12
356,75	6480,18
356,96	6829,16
357,17	6769,77
357,38	7008,15
357,59	6918,04
357,80	7199,02
358,01	7695,86
358,22	7419,38
358,43	7602,88
358,64	7685,21
358,85	7761,39
359,07	7694,22
359,28	7805,63
359,49	7643,02
359,70	7584,45
359,91	7482,05
360,12	7259,64
360,33	7067,13
360,54	7064,67
360,75	6940,57
360,96	6815,64
361,17	6445,37
361,38	6440,04
361,59	6552,68
361,80	6333,55
362,01	6322,90
362,22	6447,42
362,43	6790,65
362,64	7062,22
362,85	7468,94
363,06	7573,80
363,27	8021,48
363,48	8124,29
363,69	8313,11
363,90	8233,65
364,11	8382,75
364,32	8268,88
364,53	8341,79
364,74	8351,62
364,95	8393,40
365,16	8246,76
365,37	8485,55
365,58	8760,80
365,79	9084,79
366,00	9194,97
366,21	9259,28
366,42	9215,04
366,63	9347,75
366,84	9351,03
367,05	9544,76
367,26	9736,86
367,47	9790,11
367,68	9778,23
367,89	9919,54
368,10	9438,68
368,31	9197,43
368,52	9634,05
368,73	10794,43
368,94	10988,17
369,15	10927,96
369,36	11660,31
369,57	11818,01
369,78	12065,40
369,99	12429,12
370,20	12479,91
370,40	12776,46
370,61	12966,92
370,82	13048,84
371,03	12749,83
371,24	12748,61
371,45	12866,16
371,66	12635,97
371,87	12446,73
372,08	12958,32
372,29	13077,51
372,50	12871,89
372,71	13627,59
372,92	13764,40
373,13	13501,44
373,34	13617,76
373,55	13654,22
373,76	13618,58
373,97	13406,82
374,18	13642,34
374,39	13796,76
374,60	14067,09
374,81	13843,04
375,01	13512,09
375,22	13662,82
375,43	13087,34
375,64	13579,67
375,85	12955,86
376,06	12963,64
376,27	12832,98
376,48	12456,57
376,69	11833,57
376,90	11861,84
377,11	12021,99
377,32	11392,85
377,53	11530,47
377,74	11605,02
377,94	11376,06
378,15	11634,51
378,36	11535,39
378,57	12272,25
378,78	12092,44
378,99	12523,33
379,20	12676,11
379,41	12779,32
379,62	12907,94
379,83	13138,13
380,04	13513,32
380,25	13754,57
380,45	13958,14
380,66	14515,59
380,87	15074,28
381,08	15242,21
381,29	15811,96
381,50	15442,91
381,71	15986,85
381,92	16082,70
382,13	15777,96
382,34	14808,04
382,55	14848,59
382,75	14540,17
382,96	14417,29
383,17	14550,41
383,38	14550,00
383,59	14544,67
383,80	14533,21
384,01	14896,92
384,22	15001,37
384,43	14650,35
384,63	13898,34
384,84	13802,08
385,05	13218,00
385,26	12864,52
385,47	12710,92
385,68	12245,62
385,89	11581,26
386,10	11103,68
386,30	11042,65
386,51	10147,28
386,72	10292,27
386,93	10196,43
387,14	10176,36
387,35	10865,29
387,56	10934,11
387,77	11495,25
387,97	12137,08
388,18	12557,73
388,39	12502,44
388,60	12744,51
388,81	12539,30
389,02	12900,56
389,23	13074,64
389,43	12882,13
389,64	13284,76
389,85	12901,79
390,06	13130,76
390,27	13596,87
390,48	13307,70
390,69	13445,32
390,89	14092,48
391,10	13474,41
391,31	13293,37
391,52	13580,49
391,73	13697,63
391,94	13728,76
392,14	13923,32
392,35	14668,37
392,56	15162,75
392,77	15744,37
392,98	15489,61
393,19	15886,50
393,39	16294,05
393,60	16399,31
393,81	17319,26
394,02	17010,43
394,23	17569,52
394,44	17619,08
394,64	17651,85
394,85	18406,32
395,06	17182,46
395,27	17026,40
395,48	16585,27
395,69	15114,01
395,89	14858,42
396,10	14094,12
396,31	12529,88
396,52	12187,87
396,73	11729,13
396,93	12138,72
397,14	11738,55
397,35	13060,31
397,56	13186,46
397,77	13946,26
397,97	15008,74
398,18	16032,73
398,39	15830,80
398,60	16434,13
398,81	16331,32
399,01	16683,16
399,22	15641,98
399,43	15105,41
399,64	14223,55
399,85	13454,75
400,05	13414,60
400,26	13548,13
400,47	13808,22
400,68	14805,99
400,89	15384,34
401,09	16602,47
401,30	17750,56
401,51	18049,57
401,72	19296,78
401,93	20287,59
402,13	21274,30
402,34	21396,77
402,55	22247,49
402,76	22709,11
402,96	23173,59
403,17	22608,35
403,38	23772,00
403,59	23467,26
403,80	25339,11
404,00	24768,54
404,21	24607,98
404,42	25900,25
404,63	25944,49
404,83	26335,65
405,04	25004,47
405,25	25768,36
405,46	25439,46
405,66	25191,65
405,87	25856,42
406,08	25630,33
406,29	26289,37
406,49	25351,40
406,70	25471,82
406,91	24933,61
407,12	26476,14
407,32	24771,00
407,53	26248,00
407,74	25397,27
407,95	24287,68
408,15	25268,66
408,36	24592,01
408,57	24795,17
408,78	24764,04
408,98	24621,91
409,19	23732,68
409,40	24726,77
409,61	23866,62
409,81	23945,26
410,02	24078,38
410,23	24269,25
410,44	25507,45
410,64	24387,21
410,85	24091,89
411,06	24875,86
411,26	24730,04
411,47	24841,04
411,68	25291,19
411,89	24684,17
412,09	25752,80
412,30	25548,82
412,51	24153,33
412,72	24065,68
412,92	25047,07
413,13	24184,46
413,34	23910,85
413,54	24187,74
413,75	24580,95
413,96	24626,41
414,17	24452,34
414,37	24893,47
414,58	25140,45
414,79	25721,26
414,99	25301,43
415,20	26042,38
415,41	25733,14
415,61	25883,05
415,82	25765,90
416,03	24640,75
416,24	25296,51
416,44	25505,81
416,65	25952,68
416,86	26499,90
417,06	25589,78
417,27	25106,05
417,48	25053,21
417,68	25713,07
417,89	25923,19
418,10	24985,63
418,30	25397,68
418,51	25196,57
418,72	25095,40
418,92	26593,28
419,13	24884,87
419,34	25965,79
419,55	25057,72
419,75	25512,37
419,96	24927,06
420,17	25749,11
420,37	25025,77
420,58	23843,68
420,79	23870,30
420,99	24716,12
421,20	24785,75
421,41	24290,96
421,61	24940,57
421,82	23645,85
422,03	24843,50
422,23	23814,60
422,44	24470,77
422,65	24151,70
422,85	24046,02
423,06	23937,07
423,26	24541,22
423,47	25262,51
423,68	24261,88
423,88	25219,92
424,09	24812,37
424,30	24759,94
424,50	25213,77
424,71	25411,61
424,92	24425,71
425,12	23982,53
425,33	24792,30
425,54	24652,63
425,74	24743,97
425,95	23658,95
426,15	24936,89
426,36	23264,11
426,57	24431,86
426,77	23657,32
426,98	24386,80
427,19	24023,49
427,39	24673,52
427,60	23428,35
427,81	23953,04
428,01	23676,16
428,22	24988,91
428,42	23001,56
428,63	23922,32
428,84	24145,96
429,04	23486,11
429,25	23530,75
429,45	22907,76
429,66	23549,59
429,87	23339,88
430,07	22937,25
430,28	22766,45
430,49	22662,82
430,69	23373,88
430,90	22546,50
431,10	22451,47
431,31	22325,32
431,52	23134,67
431,72	21852,24
431,93	21533,98
432,13	21691,68
432,34	21723,62
432,55	20260,15
432,75	20998,64
432,96	20167,99
433,16	18980,98
433,37	19197,25
433,58	19378,70
433,78	19182,50
433,99	18395,26
434,19	20493,61
434,40	20787,29
434,60	21848,14
434,81	21993,55
435,02	21744,10
435,22	22452,70
435,43	22401,50
435,63	22737,78
435,84	23558,60
436,05	23944,03
436,25	22161,07
436,46	23544,27
436,66	23192,02
436,87	22852,05
437,07	22472,77
437,28	22790,21
437,48	23828,12
437,69	23081,84
437,90	23548,36
438,10	24004,65
438,31	23953,45
438,51	25429,63
438,72	24707,51
438,92	25194,93
439,13	25443,96
439,34	25329,28
439,54	25276,85
439,75	25128,58
439,95	24771,00
440,16	25330,51
440,36	25203,12
440,57	24119,34
440,77	24637,88
440,98	23454,57
441,18	23046,61
441,39	23009,34
441,60	24221,33
441,80	23699,09
442,01	22843,86
442,21	23948,95
442,42	23246,90
442,62	23525,43
442,83	23724,49
443,03	23731,04
443,24	23990,73
443,44	23800,67
443,65	24458,48
443,85	24248,36
444,06	24736,60
444,26	24933,20
444,47	24651,81
444,67	25867,07
444,88	25247,36
445,09	24897,57
445,29	25564,79
445,50	25300,61
445,70	24916,82
445,91	25244,49
446,11	24775,51
446,32	25298,56
446,52	25507,86
446,73	25281,76
446,93	25605,75
447,14	25284,63
447,34	25685,21
447,55	24771,41
447,75	25248,18
447,96	25378,84
448,16	24259,42
448,37	24404,41
448,57	23964,92
448,78	24375,74
448,98	23897,75
449,19	24003,83
449,39	24792,71
449,60	24470,77
449,80	25238,76
450,01	25229,34
450,21	25012,25
450,42	25405,87
450,62	25134,72
450,83	25119,98
451,03	25126,94
451,23	25211,72
451,44	25197,39
451,64	25915,41
451,85	25074,10
452,05	25743,38
452,26	25582,00
452,46	25833,90
452,67	25611,49
452,87	25745,42
453,08	26225,06
453,28	25495,98
453,49	26683,39
453,69	25994,05
453,90	26411,83
454,10	26744,42
454,31	26418,80
454,51	26277,08
454,71	25841,68
454,92	25511,96
455,12	24890,19
455,33	25662,28
455,53	25348,12
455,74	25929,74
455,94	26152,97
456,15	26557,24
456,35	27026,63
456,55	26660,87
456,76	27372,33
456,96	28554,01
457,17	26114,06
457,37	29186,83
457,58	27417,39
457,78	28858,34
457,99	28202,58
458,19	26207,04
458,39	28395,91
458,60	28995,55
458,80	29086,89
459,01	28409,83
459,21	28525,34
459,42	29581,68
459,62	27566,48
459,82	30518,83
460,03	29155,70
460,23	29792,21
460,44	29494,44
460,64	27489,07
460,85	30269,80
461,05	28229,20
461,25	27942,08
461,46	30286,59
461,66	29436,68
461,87	28119,02
462,07	28299,24
462,27	27135,18
462,48	26680,53
462,68	28015,39
462,89	27793,80
463,09	27213,00
463,29	28278,35
463,50	27903,16
463,70	29038,56
463,91	27869,17
464,11	27423,94
464,31	28838,27
464,52	28839,91
464,72	29267,52
464,93	28831,30
465,13	30443,47
465,33	28652,31
465,54	27866,30
465,74	27613,58
465,95	28693,68
466,15	29367,87
466,35	29479,69
466,56	28554,42
466,76	28817,38
466,96	28082,57
467,17	28127,21
467,37	28090,76
467,58	28139,91
467,78	27933,88
467,98	29183,15
468,19	27506,68
468,39	28694,50
468,59	29216,73
468,80	28390,17
469,00	27688,95
469,21	27426,40
469,41	27510,77
469,61	29022,58
469,82	27267,48
470,02	28849,74
470,22	29948,27
470,43	29006,20
470,63	28096,08
470,83	30350,90
471,04	28653,13
471,24	29153,65
471,45	28499,53
471,65	28851,37
471,85	28678,53
472,06	29280,22
472,26	29242,54
472,46	29284,31
472,67	29525,16
472,87	29068,46
473,07	28974,25
473,28	28634,29
473,48	29496,89
473,68	29911,40
473,89	29937,21
474,09	29808,59
474,29	30133,81
474,50	31146,74
474,70	30592,56
474,90	31170,08
475,11	31465,81
475,31	31294,60
475,51	31270,43
475,72	31029,18
475,92	31404,78
476,12	30719,94
476,33	31927,42
476,53	31849,60
476,73	32286,23
476,93	32619,23
477,14	31748,84
477,34	32019,58
477,54	32327,19
477,75	32656,09
477,95	32180,55
478,15	32396,41
478,36	32496,76
478,56	32430,81
478,76	32969,02
478,97	33222,15
479,17	32644,21
479,37	32566,80
479,57	33142,69
479,78	33560,88
479,98	33243,86
480,18	34139,64
480,39	34591,83
480,59	34460,35
480,79	34303,07
480,99	34601,25
481,20	34644,26
481,40	34946,54
481,60	35488,43
481,81	35132,90
482,01	35266,43
482,21	35518,33
482,41	35642,03
482,62	35916,87
482,82	35885,74
483,02	36204,81
483,23	36131,49
483,43	36684,45
483,63	36379,71
483,83	37056,36
484,04	37702,70
484,24	36915,87
484,44	37791,17
484,64	37191,52
484,85	37422,12
485,05	37644,94
485,25	37848,10
485,45	37733,41
485,66	37694,09
485,86	38000,47
486,06	37972,21
486,26	37921,83
486,47	37914,86
486,67	38190,93
486,87	38308,07
487,07	37886,19
487,28	37672,39
487,48	37456,53
487,68	37800,18
487,88	36225,29
488,09	35576,08
488,29	34772,87
488,49	34747,89
488,69	34132,27
488,90	34265,38
489,10	33678,85
489,30	34168,72
489,50	34511,55
489,71	34836,36
489,91	35447,88
490,11	35669,47
490,31	36104,05
490,52	36310,49
490,72	36460,81
490,92	36706,15
491,12	36906,85
491,32	37016,63
491,53	37583,91
491,73	37524,11
491,93	38390,81
492,13	38670,16
492,33	38887,24
492,54	38713,57
492,74	39430,77
492,94	39157,57
493,14	39428,72
493,35	39127,26
493,55	39181,33
493,75	39012,99
493,95	38451,43
494,15	38087,30
494,36	38441,60
494,56	38086,48
494,76	38391,63
494,96	38589,47
495,16	38720,95
495,37	38791,40
495,57	38539,09
495,77	38383,85
495,97	38608,31
496,17	38904,03
496,37	39049,44
496,58	39205,49
496,78	38779,93
496,98	39553,24
497,18	39665,47
497,38	39472,96
497,59	39342,30
497,79	39233,35
497,99	39181,74
498,19	39110,88
498,39	38876,59
498,59	39384,08
498,80	39107,19
499,00	39361,96
499,20	39447,15
499,40	38958,92
499,60	39060,09
499,80	39260,79
500,01	39057,63
500,21	38170,04
500,41	37806,73
500,61	37939,03
500,81	37807,96
501,01	37542,95
501,22	37833,36
501,42	37622,41
501,62	37381,98
501,82	37234,53
502,02	36926,92
502,22	36353,49
502,42	36274,03
502,63	36201,94
502,83	35572,40
503,03	35462,63
503,23	35310,67
503,43	35152,97
503,63	34861,34
503,83	34868,72
504,04	34403,83
504,24	34704,06
504,44	34649,17
504,64	34833,49
504,84	34881,00
505,04	34902,30
505,24	35465,08
505,44	35265,20
505,65	34859,70
505,85	34852,74
506,05	34927,29
506,25	34514,83
506,45	34323,55
506,65	34517,69
506,85	34781,88
507,05	34877,32
507,26	34764,68
507,46	34995,28
507,66	35311,49
507,86	35209,91
508,06	35390,54
508,26	35564,21
508,46	35367,19
508,66	35081,70
508,86	35095,22
509,06	35431,50
509,27	34750,75
509,47	34592,65
509,67	34370,65
509,87	34292,01
510,07	33994,64
510,27	34078,61
510,47	33962,69
510,67	34036,01
510,87	33979,49
511,07	34186,74
511,28	34143,74
511,48	33710,38
511,68	33920,92
511,88	34006,52
512,08	33925,42
512,28	33624,37
512,48	33588,74
512,68	33532,21
512,88	33560,47
513,08	33902,89
513,28	33771,41
513,48	33922,55
513,68	34308,80
513,89	34046,25
514,09	33884,05
514,29	34128,17
514,49	33717,35
514,69	33306,53
514,89	33531,80
515,09	33516,65
515,29	33352,81
515,49	33095,58
515,69	32977,21
515,89	33131,22
516,09	33013,67
516,29	32736,37
516,49	32626,19
516,69	32635,61
516,89	32430,40
517,09	32444,74
517,29	32477,51
517,50	32704,42
517,70	32643,80
517,90	32632,33
518,10	32234,62
518,30	32351,76
518,50	31311,39
518,70	30771,96
518,90	30572,08
519,10	30002,33
519,30	29994,96
519,50	30045,75
519,70	30176,82
519,90	30180,51
520,10	30279,22
520,30	29797,95
520,50	29538,26
520,70	29989,23
520,90	29879,04
521,10	30383,25
521,30	30734,28
521,50	31231,93
521,70	31343,75
521,90	31528,48
522,10	32341,11
522,30	31773,83
522,50	32255,10
522,70	32097,40
522,90	32530,75
523,10	32295,65
523,30	32868,26
523,50	32942,40
523,70	33288,09
523,90	33186,10
524,10	33408,92
524,30	33232,39
524,50	33124,26
524,70	32732,27
524,90	32784,70
525,10	33052,99
525,30	32777,74
525,50	33156,20
525,70	33269,66
525,90	33313,90
526,10	33511,73
526,30	33842,27
526,50	33765,68
526,70	33795,99
526,90	33714,48
527,10	33825,07
527,30	33722,67
527,50	33967,61
527,70	33772,23
527,90	33484,70
528,10	32959,19
528,30	32608,17
528,50	32117,47
528,70	31637,84
528,90	31403,14
529,10	31276,17
529,30	31106,60
529,50	31533,39
529,70	31429,36
529,90	31881,55
530,10	32065,46
530,29	32112,56
530,49	32412,79
530,69	32837,54
530,89	33059,54
531,09	32938,30
531,29	33131,63
531,49	33135,32
531,69	32978,85
531,89	33018,58
532,09	33143,92
532,29	32848,60
532,49	32970,66
532,69	33326,60
532,89	33484,29
533,09	33153,34
533,29	33632,97
533,49	33226,65
533,68	33238,53
533,88	33376,57
534,08	32942,81
534,28	32157,21
534,48	31799,63
534,68	31641,53
534,88	31339,66
535,08	31492,43
535,28	31491,62
535,48	31355,22
535,68	31377,75
535,88	31174,59
536,08	31255,69
536,27	31387,58
536,47	31102,09
536,67	31659,55
536,87	31485,06
537,07	31458,44
537,27	31864,35
537,47	31998,28
537,67	31888,92
537,87	32072,42
538,07	32409,11
538,27	31775,05
538,46	31696,82
538,66	31542,41
538,86	30908,35
539,06	31233,98
539,26	31202,44
539,46	30932,52
539,66	31093,90
539,86	31245,04
540,06	31072,60
540,25	30814,97
540,45	30960,78
540,65	30955,87
540,85	30921,46
541,05	30742,06
541,25	30493,85
541,45	30321,41
541,65	30033,46
541,85	29840,13
542,04	29661,96
542,24	29118,84
542,44	29276,94
542,64	29074,19
542,84	28766,59
543,04	28610,53
543,24	28722,35
543,43	28925,10
543,63	28807,96
543,83	28789,94
544,03	28735,05
544,23	28697,37
544,43	28894,79
544,63	28711,70
544,82	28985,31
545,02	28522,06
545,22	28668,29
545,42	28362,32
545,62	28882,09
545,82	28847,28
546,02	28918,96
546,21	28594,97
546,41	28630,19
546,61	28503,63
546,81	28850,55
547,01	28221,83
547,21	28735,05
547,40	28425,81
547,60	28342,25
547,80	28141,55
548,00	28576,13
548,20	28236,98
548,40	27889,24
548,59	28143,60
548,79	28053,49
548,99	28045,29
549,19	27716,80
549,39	27664,37
549,59	27576,31
549,78	27218,73
549,98	27350,62
550,18	27147,05
550,38	27196,21
550,58	27173,27
550,77	27259,69
550,97	27428,86
551,17	26855,01
551,37	27367,42
551,57	26986,49
551,76	26860,34
551,96	26874,67
552,16	26723,13
552,36	26891,47
552,56	26633,83
552,75	26704,69
552,95	26532,25
553,15	26438,05
553,35	26522,01
553,55	26309,84
553,74	26503,58
553,94	26212,36
554,14	26218,92
554,34	26063,68
554,54	26041,15
554,73	26219,73
554,93	25980,94
555,13	26082,11
555,33	25927,28
555,53	25995,28
555,72	25686,03
555,92	25766,72
556,12	25724,54
556,32	25731,09
556,51	25594,28
556,71	25699,96
556,91	25405,05
557,11	25673,34
557,30	25631,56
557,50	25375,97
557,70	25205,99
557,90	25258,01
558,10	25054,44
558,29	24752,16
558,49	24764,45
558,69	24461,35
558,89	24139,41
559,08	24238,12
559,28	24199,21
559,48	24027,18
559,68	24059,95
559,87	24051,75
560,07	23839,59
560,27	23760,12
560,47	23411,97
560,66	23299,33
560,86	22954,04
561,06	22879,50
561,25	22977,80
561,45	22943,80
561,65	22942,17
561,85	22760,31
562,04	22704,60
562,24	22795,94
562,44	22969,61
562,64	22883,18
562,83	22965,51
563,03	22842,63
563,23	22927,01
563,42	22665,69
563,62	22872,12
563,82	22492,84
564,02	22707,88
564,21	22505,95
564,41	22508,00
564,61	22547,32
564,80	22558,38
565,00	22510,04
565,20	22375,70
565,40	22136,08
565,59	22321,22
565,79	22296,24
565,99	22257,32
566,18	22136,90
566,38	21897,29
566,58	22013,62
566,78	21764,17
566,97	21827,66
567,17	21574,53
567,37	21786,29
567,56	21334,92
567,76	21157,97
567,96	21113,33
568,15	21135,86
568,35	21083,84
568,55	21113,33
568,74	21080,56
568,94	21238,26
569,14	21024,45
569,33	21028,54
569,53	21028,13
569,73	21052,71
569,92	20616,90
570,12	20469,04
570,32	20428,49
570,52	20267,93
570,71	20271,61
570,91	20079,51
571,11	20363,36
571,30	20079,92
571,50	20224,10
571,70	20168,40
571,89	19986,13
572,09	19875,95
572,28	19939,84
572,48	19552,78
572,68	19334,46
572,87	19419,66
573,07	19453,25
573,27	19247,22
573,46	19372,15
573,66	19457,34
573,86	19420,89
574,05	19653,13
574,25	19665,01
574,45	19556,87
574,64	19617,49
574,84	19508,54
575,04	19474,54
575,23	19572,03
575,43	19597,83
575,62	19543,36
575,82	19463,08
576,02	19186,19
576,21	19388,12
576,41	19349,62
576,61	19202,98
576,80	19008,43
577,00	19034,64
577,19	18737,69
577,39	18898,25
577,59	18880,63
577,78	18731,13
577,98	18879,00
578,18	18616,86
578,37	18715,16
578,57	18815,92
578,76	18626,28
578,96	18471,86
579,16	18538,62
579,35	18703,28
579,55	18407,96
579,74	18179,41
579,94	18250,27
580,14	18169,17
580,33	18246,99
580,53	18130,67
580,72	18161,39
580,92	18194,56
581,12	18139,27
581,31	18185,55
581,51	18269,93
581,70	18221,19
581,90	18450,56
582,10	18223,24
582,29	18549,27
582,49	18358,81
582,68	18430,90
582,88	18486,60
583,07	18528,38
583,27	18545,18
583,47	18574,26
583,66	18729,49
583,86	18624,23
584,05	18715,98
584,25	18637,74
584,44	18822,47
584,64	18657,81
584,84	18770,04
585,03	18543,13
585,23	18679,11
585,42	18709,01
585,62	18583,68
585,81	18796,26
586,01	18686,90
586,20	18826,98
586,40	18616,86
586,60	18395,26
586,79	18446,05
586,99	18310,07
587,18	18265,83
587,38	18144,18
587,57	18036,05
587,77	18035,64
587,96	18004,10
588,16	17871,80
588,35	17920,55
588,55	18043,01
588,75	17882,04
588,94	17823,47
589,14	17885,73
589,33	17734,18
589,53	17726,40
589,72	17453,61
589,92	17547,82
590,11	17158,70
590,31	16859,29
590,50	16415,70
590,70	16074,92
590,89	15836,94
591,09	15490,02
591,28	15459,71
591,48	15605,93
591,67	15267,20
591,87	15662,05
592,06	15719,39
592,26	15754,20
592,45	15850,05
592,65	16028,22
592,84	16064,27
593,04	16177,31
593,23	16023,72
593,43	16180,18
593,62	16033,96
593,82	15884,46
594,01	15980,71
594,21	16061,40
594,40	16004,47
594,60	15992,18
594,79	16061,40
594,99	15861,93
595,18	16159,70
595,38	16018,80
595,57	15913,13
595,77	16051,57
595,96	15682,12
596,16	15628,87
596,35	15503,53
596,55	15499,44
596,74	15550,64
596,94	15479,37
597,13	15418,34
597,33	15565,38
597,52	15386,80
597,72	15530,57
597,91	15559,24
598,11	15585,45
598,30	15432,67
598,50	15626,82
598,69	15475,68
598,88	15457,25
599,08	15401,13
599,27	15357,72
599,47	15326,59
599,66	15299,56
599,86	15276,62
600,05	15317,58
600,25	15289,32
600,44	15092,30
600,64	15162,34
600,83	15080,83
601,02	15264,74
601,22	15120,15
601,41	15080,83
601,61	15069,77
601,80	15081,65
602,00	15093,94
602,19	14872,76
602,38	15001,37
602,58	14606,11
602,77	14829,75
602,97	14865,80
603,16	14873,58
603,36	14508,22
603,55	14654,85
603,74	14532,39
603,94	14524,60
604,13	14568,02
604,33	14580,31
604,52	14562,70
604,72	14571,30
604,91	14369,37
605,10	14677,79
605,30	14470,95
605,49	14529,11
605,69	14479,55
605,88	14450,47
606,07	14522,15
606,27	14418,52
606,46	14368,14
606,66	14500,85
606,85	14235,02
607,04	14289,50
607,24	14249,77
607,43	14185,05
607,63	14060,53
607,82	14131,80
608,01	14111,73
608,21	13929,05
608,40	13937,66
608,60	13920,86
608,79	13909,39
608,98	13856,15
609,18	13860,24
609,37	13752,52
609,57	13537,48
609,76	13418,70
609,95	13573,53
610,15	13546,08
610,34	13436,31
610,53	13429,35
610,73	13294,59
610,92	13240,94
611,11	13213,49
611,31	13255,68
611,50	13053,34
611,70	13158,20
611,89	13045,97
612,08	13009,93
612,28	12950,54
612,47	13011,56
612,66	12934,15
612,86	12940,70
613,05	12861,24
613,24	12835,03
613,44	12885,41
613,63	12801,85
613,82	12862,47
614,02	12803,90
614,21	12614,67
614,41	12739,59
614,60	12779,73
614,79	12552,00
614,99	12370,55
615,18	12529,47
615,37	12336,14
615,57	12504,08
615,76	12370,14
615,95	12530,70
616,15	12327,54
616,34	12605,66
616,53	12495,48
616,73	12546,27
616,92	12384,48
617,11	12502,85
617,30	12309,52
617,50	12169,85
617,69	12187,46
617,88	12293,96
618,08	12039,60
618,27	12170,67
618,46	12187,46
618,66	12141,18
618,85	12221,46
619,04	12226,37
619,24	12398,40
619,43	12513,09
619,62	12540,94
619,82	12611,80
620,01	12616,31
620,20	12577,40
620,39	12489,74
620,59	12550,36
620,78	12570,84
620,97	12538,89
621,17	12553,23
621,36	12729,76
621,55	12742,87
621,74	12788,34
621,94	12753,11
622,13	12829,71
622,32	12911,21
622,52	12719,52
622,71	12731,40
622,90	12705,19
623,09	12751,88
623,29	12683,89
623,48	12671,19
623,67	12828,48
623,86	12649,89
624,06	12679,38
624,25	12748,20
624,44	12668,73
624,64	12486,47
624,83	12511,86
625,02	12343,93
625,21	12456,97
625,41	12522,51
625,60	12406,59
625,79	12324,27
625,98	12244,81
626,18	12489,74
626,37	12191,15
626,56	12144,05
626,75	12144,05
626,95	11977,75
627,14	12125,61
627,33	12099,40
627,52	12010,52
627,72	12036,32
627,91	12051,48
628,10	12104,72
628,29	12015,02
628,49	12005,19
628,68	11861,02
628,87	11759,85
629,06	11678,75
629,25	11617,72
629,45	11241,71
629,64	11143,82
629,83	11423,98
630,02	11272,84
630,22	11206,89
630,41	11354,35
630,60	11273,66
630,79	11253,59
630,98	11223,28
631,18	11181,91
631,37	11077,46
631,56	11141,77
631,75	11228,60
631,94	11160,20
632,14	11189,69
632,33	11227,37
632,52	11175,77
632,71	11061,90
632,90	11195,43
633,10	11138,08
633,29	11022,17
633,48	11073,78
633,67	11055,34
633,86	11105,32
634,06	11281,85
634,25	11167,98
634,44	11269,15
634,63	11149,55
634,82	11252,77
635,02	11077,05
635,21	11192,56
635,40	11156,92
635,59	11008,65
635,78	11169,62
635,97	11183,55
636,17	10977,52
636,36	11148,32
636,55	11045,11
636,74	11116,37
636,93	10925,91
637,12	11021,35
637,32	11043,88
637,51	10920,59
637,70	10908,71
637,89	10937,38
638,08	10916,08
638,27	10866,93
638,47	10891,92
638,66	11012,34
638,85	10835,80
639,04	10881,68
639,23	10770,27
639,42	10889,87
639,62	10897,24
639,81	10884,54
640,00	10874,71
640,19	10760,03
640,38	10763,30
640,57	10849,32
640,76	10780,10
640,95	10744,46
641,15	10754,70
641,34	10616,67
641,53	10634,69
641,72	10459,80
641,91	10503,62
642,10	10495,84
642,29	10447,92
642,49	10528,61
642,68	10463,89
642,87	10427,44
643,06	10482,73
643,25	10465,94
643,44	10291,86
643,63	10361,90
643,82	10412,28
644,01	10529,84
644,21	10352,89
644,40	10302,92
644,59	10312,75
644,78	10402,04
644,97	10171,44
645,16	10281,21
645,35	10227,15
645,54	10359,85
645,73	10212,40
645,92	10323,40
646,12	10176,77
646,31	10178,00
646,50	10169,39
646,69	10227,15
646,88	9976,47
647,07	10029,72
647,26	9927,32
647,45	9865,07
647,64	9770,04
647,83	9886,36
648,02	9748,33
648,22	9644,29
648,41	9713,52
648,60	9548,45
648,79	9419,02
648,98	9433,35
649,17	9358,40
649,36	9350,21
649,55	9292,04
649,74	9166,71
649,93	9184,73
650,12	9303,10
650,31	9222,41
650,50	9141,31
650,69	9073,73
650,88	9078,24
651,08	8923,82
651,27	8990,99
651,46	9004,92
651,65	9117,15
651,84	9069,22
652,03	9200,70
652,22	9206,85
652,41	9256,00
652,60	9081,10
652,79	9034,41
652,98	8963,96
653,17	8955,36
653,36	8925,46
653,55	9030,72
653,74	8947,99
653,93	8996,32
654,12	8992,63
654,31	9061,03
654,50	9041,37
654,69	8929,55
654,88	9032,36
655,07	9112,64
655,26	8954,13
655,45	8936,93
655,64	8838,62
655,83	8917,27
656,02	8743,60
656,21	8689,94
656,40	8620,72
656,59	8696,08
656,78	8471,63
656,97	8284,03
657,17	7990,35
657,36	7846,18
657,55	7482,87
657,74	7589,77
657,93	7480,41
658,12	7485,74
658,31	7568,06
658,50	7715,52
658,69	7784,74
658,87	7928,10
659,06	7912,53
659,25	8061,62
659,44	8121,42
659,63	8130,03
659,82	8333,18
660,01	8333,59
660,20	8345,06
660,39	8274,61
660,58	8321,31
660,77	8186,55
660,96	8284,85
661,15	8295,50
661,34	8309,43
661,53	8370,46
661,72	8349,16
661,91	8389,71
662,10	8288,54
662,29	8322,13
662,48	8199,66
662,67	8261,10
662,86	8267,24
663,05	8329,09
663,24	8342,61
663,43	8271,75
663,62	8215,22
663,81	8255,77
664,00	8215,63
664,19	8151,73
664,38	8099,31
664,57	8091,93
664,76	8107,91
664,94	8062,85
665,13	8012,06
665,32	7929,33
665,51	8057,53
665,70	7982,57
665,89	8005,51
666,08	7890,41
666,27	7982,98
666,46	7873,62
666,65	7758,12
666,84	7898,61
667,03	7880,17
667,22	7900,65
667,41	7790,88
667,60	7775,32
667,78	7809,31
667,97	7753,61
668,16	7837,17
668,35	7696,27
668,54	7648,75
668,73	7658,99
668,92	7705,69
669,11	7671,28
669,30	7650,39
669,49	7579,94
669,68	7551,27
669,86	7644,66
670,05	7595,92
670,24	7473,86
670,43	7534,07
670,62	7498,43
670,81	7483,69
671,00	7489,83
671,19	7419,38
671,38	7369,82
671,57	7343,20
671,75	7402,59
671,94	7316,16
672,13	7230,56
672,32	7365,72
672,51	7198,20
672,70	7171,17
672,89	7190,01
673,08	7140,45
673,26	7194,10
673,45	7114,23
673,64	7105,22
673,83	7064,26
674,02	7037,64
674,21	6988,90
674,40	7059,35
674,59	7007,33
674,77	7082,29
674,96	6943,02
675,15	7011,02
675,34	7012,25
675,53	6898,38
675,72	6826,29
675,91	6839,40
676,09	6793,93
676,28	6884,86
676,47	6783,28
676,66	6775,91
676,85	6803,35
677,04	6824,24
677,22	6761,98
677,41	6709,96
677,60	6775,09
677,79	6693,99
677,98	6714,47
678,17	6628,46
678,36	6656,31
678,54	6698,91
678,73	6655,49
678,92	6642,38
679,11	6665,32
679,30	6676,38
679,48	6662,45
679,67	6543,67
679,86	6687,44
680,05	6583,40
680,24	6537,53
680,43	6491,65
680,61	6453,15
680,80	6537,53
680,99	6467,89
681,18	6449,05
681,37	6374,92
681,55	6353,62
681,74	6361,40
681,93	6336,01
682,12	6378,19
682,31	6311,84
682,49	6407,68
682,68	6311,43
682,87	6342,97
683,06	6388,84
683,25	6198,38
683,43	6209,44
683,62	6161,11
683,81	6218,45
684,00	6164,80
684,19	6175,04
684,37	6104,59
684,56	6134,49
684,75	6016,52
684,94	6028,81
685,12	5988,26
685,31	5956,31
685,50	5941,98
685,69	5983,76
685,88	5853,50
686,06	5873,98
686,25	5878,90
686,44	5857,60
686,63	5890,78
686,81	5821,56
687,00	5742,91
687,19	5803,94
687,38	5579,08
687,56	5452,51
687,75	5176,04
687,94	4915,53
688,13	4516,59
688,31	4242,57
688,50	4049,65
688,69	3916,54
688,88	3945,62
689,06	3977,56
689,25	4068,09
689,44	4194,24
689,63	4138,13
689,81	4224,96
690,00	4176,63
690,19	4166,39
690,38	4185,64
690,56	4177,04
690,75	4164,75
690,94	4263,87
691,13	4315,48
691,31	4319,99
691,50	4420,75
691,69	4408,05
691,87	4482,18
692,06	4507,99
692,25	4564,92
692,44	4543,21
692,62	4582,13
692,81	4675,92
693,00	4684,52
693,18	4678,38
693,37	4768,49
693,56	4720,57
693,75	4788,56
693,93	4789,38
694,12	4754,97
694,31	4749,24
694,49	4744,32
694,68	4742,28
694,87	4624,72
695,05	4640,70
695,24	4626,36
695,43	4668,55
695,62	4588,68
695,80	4600,15
695,99	4573,93
696,18	4615,30
696,36	4621,86
696,55	4581,72
696,74	4698,04
696,92	4616,12
697,11	4637,42
697,30	4641,52
697,48	4727,12
697,67	4728,76
697,86	4802,90
698,04	4863,52
698,23	4800,44
698,42	4841,81
698,60	4766,03
698,79	4863,93
698,98	4746,37
699,16	4807,81
699,35	4715,65
699,54	4750,88
699,72	4671,83
699,91	4583,76
700,10	4677,56
700,28	4600,15
700,47	4471,13
700,66	4468,26
700,84	4498,16
701,03	4502,25
701,21	4329,82
701,40	4439,18
701,59	4338,83
701,77	4387,98
701,96	4417,47
702,15	4315,07
702,33	4279,03
702,52	4426,07
702,71	4276,98
702,89	4258,55
703,08	4281,89
703,26	4278,21
703,45	4195,88
703,64	4233,56
703,82	4272,47
704,01	4275,75
704,20	4241,75
704,38	4280,25
704,57	4369,55
704,75	4296,23
704,94	4270,83
705,13	4305,65
705,31	4344,56
705,50	4382,24
705,68	4364,63
705,87	4406,41
706,06	4319,17
706,24	4371,18
706,43	4317,53
706,61	4307,29
706,80	4289,27
706,99	4309,75
707,17	4313,84
707,36	4319,17
707,54	4256,91
707,73	4317,53
707,92	4291,31
708,10	4323,67
708,29	4349,89
708,47	4313,43
708,66	4236,02
708,84	4258,55
709,03	4203,25
709,22	4227,01
709,40	4231,92
709,59	4273,29
709,77	4281,48
709,96	4240,93
710,14	4256,91
710,33	4259,37
710,52	4178,68
710,70	4290,08
710,89	4156,56
711,07	4146,73
711,26	4238,07
711,44	4186,46
711,63	4149,59
711,81	4138,54
712,00	4186,46
712,19	4156,97
712,37	4079,14
712,56	4100,44
712,74	4118,06
712,93	4137,31
713,11	4104,13
713,30	4005,01
713,48	4142,63
713,67	4047,20
713,85	4038,59
714,04	3932,10
714,22	3925,14
714,41	4039,41
714,59	3997,64
714,78	3994,77
714,97	3980,43
715,15	3888,27
715,34	3921,04
715,52	3993,13
715,71	3811,27
715,89	3876,80
716,08	3861,65
716,26	3879,67
716,45	3760,48
716,63	3770,72
716,82	3701,50
717,00	3749,01
717,19	3618,35
717,37	3629,41
717,56	3501,21
717,74	3397,17
717,93	3289,86
718,11	3188,69
718,30	3077,28
718,48	3008,06
718,67	2852,82
718,85	2768,03
719,04	2696,36
719,22	2786,47
719,41	2686,53
719,59	2571,02
719,78	2577,16
719,96	2568,15
720,15	2525,15
720,33	2512,86
720,52	2440,77
720,70	2496,47
720,88	2385,06
721,07	2447,73
721,25	2466,98
721,44	2469,44
721,62	2515,72
721,81	2606,65
721,99	2749,19
722,18	2790,56
722,36	2920,81
722,55	2967,51
722,73	2997,82
722,92	3057,62
723,10	3115,78
723,28	3082,60
723,47	3037,14
723,65	3051,47
723,84	3102,67
724,02	2943,34
724,21	2902,79
724,39	2754,93
724,58	2738,95
724,76	2713,56
724,94	2691,85
725,13	2645,16
725,31	2588,22
725,50	2653,76
725,68	2552,18
725,87	2577,57
726,05	2522,28
726,23	2599,28
726,42	2521,87
726,60	2555,86
726,79	2603,38
726,97	2525,96
727,16	2523,51
727,34	2585,77
727,52	2553,41
727,71	2558,73
727,89	2633,69
728,08	2653,76
728,26	2599,28
728,44	2505,89
728,63	2453,88
728,81	2505,08
729,00	2553,41
729,18	2550,95
729,36	2478,86
729,55	2496,47
729,73	2551,36
729,92	2503,03
730,10	2447,32
730,28	2418,65
730,47	2492,38
730,65	2528,01
730,84	2538,25
731,02	2544,40
731,20	2477,22
731,39	2499,75
731,57	2426,84
731,75	2473,13
731,94	2553,82
732,12	2512,04
732,31	2479,27
732,49	2504,67
732,67	2584,54
732,86	2547,67
733,04	2622,22
733,22	2660,72
733,41	2702,50
733,59	2746,33
733,78	2794,25
733,96	2750,01
734,14	2818,00
734,33	2807,77
734,51	2798,34
734,69	2770,08
734,88	2867,98
735,06	2886,82
735,24	2819,23
735,43	2845,45
735,61	2861,42
735,79	2845,45
735,98	2831,93
736,16	2787,70
736,34	2747,55
736,53	2870,84
736,71	2794,66
736,89	2746,33
737,08	2778,27
737,26	2727,89
737,44	2791,79
737,63	2815,55
737,81	2782,78
737,99	2768,44
738,18	2741,00
738,36	2801,21
738,54	2789,33
738,73	2799,98
738,91	2799,57
739,09	2793,02
739,28	2828,24
739,46	2775,41
739,64	2770,49
739,82	2641,88
740,01	2750,42
740,19	2764,76
740,37	2745,51
740,56	2751,24
740,74	2700,45
740,92	2682,84
741,11	2810,22
741,29	2736,09
741,47	2753,29
741,65	2675,47
741,84	2782,78
742,02	2740,18
742,20	2762,30
742,39	2672,60
742,57	2732,40
742,75	2686,53
742,93	2699,63
743,12	2707,82
743,30	2738,13
743,48	2755,34
743,67	2637,78
743,85	2734,45
744,03	2669,32
744,21	2692,26
744,40	2739,36
744,58	2720,52
744,76	2705,78
744,94	2654,99
745,13	2625,91
745,31	2641,88
745,49	2639,01
745,67	2623,45
745,86	2659,90
746,04	2678,74
746,22	2563,65
746,40	2607,88
746,59	2611,16
746,77	2639,83
746,95	2614,44
747,13	2639,42
747,32	2589,04
747,50	2589,04
747,68	2582,08
747,86	2602,15
748,05	2573,48
748,23	2500,98
748,41	2580,44
748,59	2578,80
748,77	2540,71
748,96	2516,95
749,14	2530,47
749,32	2465,75
749,50	2474,36
749,69	2457,97
749,87	2437,49
750,05	2432,58
750,23	2481,32
750,41	2436,67
750,60	2364,58
750,78	2426,02
750,96	2404,32
751,14	2331,41
751,32	2374,01
751,51	2406,36
751,69	2413,74
751,87	2374,82
752,05	2389,57
752,23	2365,40
752,42	2345,74
752,60	2381,79
752,78	2261,37
752,96	2371,55
753,14	2261,37
753,33	2309,70
753,51	2301,51
753,69	2349,02
753,87	2309,70
754,05	2276,52
754,23	2290,45
754,42	2297,41
754,60	2313,39
754,78	2283,49
754,96	2312,57
755,14	2301,10
755,32	2282,26
755,51	2348,61
755,69	2271,20
755,87	2272,02
756,05	2288,40
756,23	2350,25
756,41	2253,99
756,60	2263,82
756,78	2239,25
756,96	2300,28
757,14	2234,33
757,32	2332,23
757,50	2231,06
757,68	2290,04
757,87	2307,65
758,05	2366,63
758,23	2267,92
758,41	2294,95
758,59	2244,98
758,77	2270,79
758,95	2220,41
759,14	2227,78
759,32	2249,90
759,50	2210,17
759,68	2174,53
759,86	2099,17
760,04	1897,65
760,22	1708,83
760,40	1410,64
760,59	1231,24
760,77	957,22
760,95	743,41
761,13	604,56
761,31	408,77
761,49	342,42
761,67	303,51
761,85	221,18
762,03	293,68
762,22	417,79
762,40	473,90
762,58	576,71
762,76	621,76
762,94	655,76
763,12	707,37
763,30	661,49
763,48	565,24
763,66	596,37
763,84	584,49
764,02	546,40
764,21	518,55
764,39	525,51
764,57	604,56
764,75	632,41
764,93	650,03
765,11	745,05
765,29	754,47
765,47	758,98
765,65	849,09
765,83	957,22
766,01	997,77
766,19	1125,56
766,37	1135,39
766,56	1184,95
766,74	1274,25
766,92	1403,68
767,10	1417,60
767,28	1511,81
767,46	1565,88
767,64	1663,36
767,82	1765,76
768,00	1785,01
768,18	1885,77
768,36	1864,88
768,54	1886,18
768,72	1936,56
768,90	2018,89
769,08	2069,27
769,26	2047,56
769,44	2052,47
769,62	2157,74
769,80	2029,95
769,98	2136,85
770,16	2131,12
770,34	2047,97
770,52	2105,31
770,71	2147,50
770,89	2137,67
771,07	2130,71
771,25	2162,25
771,43	2129,89
771,61	2121,70
771,79	2144,22
771,97	2134,80
772,15	2168,39
772,33	2099,99
772,51	2097,94
772,69	2116,37
772,87	2133,16
773,05	2047,56
773,23	2064,76
773,41	2112,68
773,59	2071,32
773,77	2057,39
773,95	2075,41
774,13	2069,68
774,31	2055,34
774,49	2073,36
774,67	2018,07
774,85	2054,11
775,03	2046,33
775,21	2025,85
775,39	2052,47
775,57	1913,62
775,75	1898,88
775,93	1921,40
776,10	1954,99
776,28	1906,25
776,46	1920,18
776,64	1935,74
776,82	1928,37
777,00	1784,19
777,18	1953,76
777,36	1864,06
777,54	1883,31
777,72	1817,78
777,90	1818,19
778,08	1872,25
778,26	1833,34
778,44	1813,27
778,62	1800,16
778,80	1749,37
778,98	1758,80
779,16	1754,29
779,34	1781,73
779,52	1769,85
779,70	1732,58
779,88	1753,06
780,05	1683,84
780,23	1706,37
780,41	1714,56
780,59	1682,61
780,77	1665,00
780,95	1617,90
781,13	1634,69
781,31	1638,38
781,49	1671,14
781,67	1627,73
781,85	1645,75
782,03	1575,71
782,21	1628,95
782,39	1633,05
782,56	1589,63
782,74	1621,99
782,92	1575,71
783,10	1595,37
783,28	1584,72
783,46	1632,64
783,64	1581,44
783,82	1507,71
784,00	1501,16
784,18	1499,11
784,35	1561,37
784,53	1488,87
784,71	1520,41
784,89	1479,45
785,07	1482,32
785,25	1510,58
785,43	1444,23
785,61	1494,20
785,79	1458,56
785,96	1448,73
786,14	1450,37
786,32	1429,48
786,50	1430,71
786,68	1444,64
786,86	1410,64
787,04	1477,81
787,22	1463,89
787,39	1382,38
787,57	1387,29
787,75	1398,35
787,93	1379,92
788,11	1376,64
788,29	1357,39
788,47	1341,83
788,65	1340,60
788,82	1283,26
789,00	1263,19
789,18	1290,22
789,36	1316,84
789,54	1290,63
789,72	1299,64
789,89	1253,36
790,07	1184,95
790,25	1171,85
790,43	1215,67
790,61	1168,98
790,79	1236,97
790,96	1213,22
791,14	1162,02
791,32	1243,12
791,50	1129,25
791,68	1171,85
791,86	1188,23
792,03	1191,92
792,21	1156,28
792,39	1191,51
792,57	1171,44
792,75	1168,57
792,93	1129,25
793,10	1133,35
793,28	1110,00
793,46	1139,90
793,64	1130,89
793,82	1058,39
793,99	1085,01
794,17	1112,87
794,35	1126,79
794,53	1077,23
794,71	1099,76
794,88	1136,21
795,06	1136,21
795,24	1147,27
795,42	1095,66
795,60	1086,65
795,77	1094,84
795,95	1091,98
796,13	1058,80
796,31	1070,27
796,49	1019,89
796,66	992,04
796,84	1021,94
797,02	1028,08
797,20	952,31
797,37	1046,10
797,55	1001,05
797,73	947,80
797,91	1055,52
798,08	972,79
798,26	974,83
798,44	995,72
798,62	1005,96
798,80	973,60
798,97	1019,89
799,15	1051,84
799,33	986,71
799,51	938,38
799,68	934,28
799,86	1003,91
800,04	977,70
800,22	961,73
800,39	955,17
800,57	935,51
800,75	946,16
800,93	944,52
801,10	908,89
801,28	866,70
801,46	912,57
801,63	905,20
801,81	883,90
801,99	887,59
802,17	862,19
802,34	838,85
802,52	899,47
802,70	858,10
802,88	848,27
803,05	856,05
803,23	831,07
803,41	833,52
803,58	874,07
803,76	863,42
803,94	778,64
804,12	823,28
804,29	840,90
804,47	821,24
804,65	828,61
804,82	775,77
805,00	849,91
805,18	871,21
805,35	840,90
805,53	743,41
805,71	787,24
805,89	795,84
806,06	800,76
806,24	872,84
806,42	871,21
806,59	798,30
806,77	807,31
806,95	814,68
807,12	801,57
807,30	809,36
807,48	833,52
807,65	788,06
807,83	773,31
808,01	777,82
808,18	791,74
808,36	790,52
808,54	777,00
808,71	720,48
808,89	752,42
809,07	754,47
809,24	763,07
809,42	720,07
809,60	722,93
809,77	757,75
809,95	714,33
810,13	722,11
810,30	652,48
810,48	667,64
810,66	731,12
810,83	745,87
811,01	727,03
811,18	684,02
811,36	700,41
811,54	702,86
811,71	668,05
811,89	684,02
812,07	643,88
812,24	655,35
812,42	704,91
812,59	641,42
812,77	623,81
812,95	657,40
813,12	625,86
813,30	638,56
813,48	642,24
813,65	577,12
813,83	606,20
814,00	542,71
814,18	505,44
814,36	539,03
814,53	519,77
814,71	518,55
814,88	502,98
815,06	509,94
815,24	440,31
815,41	501,34
815,59	432,12
815,76	471,44
815,94	444,82
816,12	435,40
816,29	416,97
816,47	382,56
816,64	383,38
816,82	417,38
817,00	382,97
817,17	408,77
817,35	378,87
817,52	400,58
817,70	405,50
817,87	391,16
818,05	411,64
818,23	388,70
818,40	376,42
818,58	326,04
818,75	371,50
818,93	358,39
819,10	339,96
819,28	392,39
819,46	430,48
819,63	410,82
819,81	339,14
819,98	381,33
820,16	345,29
820,33	400,99
820,51	405,91
820,68	415,74
820,86	420,24
821,03	351,43
821,21	431,71
821,39	439,90
821,56	514,04
821,74	507,08
821,91	441,95
822,09	420,24
822,26	455,47
822,44	418,60
822,61	466,53
822,79	403,04
822,96	367,41
823,14	307,60
823,31	301,87
823,49	299,82
823,66	241,66
823,84	264,19
824,01	349,79
824,19	280,98
824,36	360,85
824,54	355,94
824,71	327,68
824,89	405,91
825,06	356,76
825,24	420,65
825,41	377,24
825,59	461,20
825,76	435,81
825,94	416,56
826,11	388,29
826,29	406,32
826,46	400,99
826,64	427,21
826,81	428,03
826,99	344,06
827,16	437,45
827,34	423,93
827,51	385,84
827,69	369,04
827,86	367,00
828,04	362,08
828,21	320,71
828,39	331,36
828,56	359,62
828,74	305,15
828,91	296,14
829,09	269,10
829,26	368,63
829,43	335,46
829,61	309,65
829,78	317,44
829,96	300,23
830,13	335,87
830,31	307,60
830,48	347,34
830,66	362,08
830,83	308,42
831,01	383,38
831,18	369,04
831,35	357,58
831,53	353,48
831,70	297,37
831,88	285,90
832,05	368,22
832,23	338,73
832,40	320,71
832,57	324,81
832,75	300,23
832,92	253,95
833,10	339,96
833,27	339,96
833,45	333,41
833,62	323,99
833,79	305,56
833,97	284,26
834,14	280,16
834,32	246,99
834,49	343,65
834,66	305,56
834,84	319,48
835,01	319,89
835,19	335,46
835,36	285,08
835,53	326,45
835,71	359,62
835,88	295,32
836,06	325,63
836,23	312,11
836,40	355,12
836,58	369,04
836,75	243,71
836,93	319,07
837,10	339,96
837,27	337,51
837,45	355,12
837,62	308,83
837,79	345,70
837,97	371,91
838,14	278,11
838,32	305,97
838,49	307,20
838,66	312,52
838,84	296,96
839,01	254,77
839,18	308,42
839,36	292,04
839,53	323,17
839,70	259,27
839,88	260,50
840,05	274,84
840,23	348,97
840,40	337,10
840,57	285,08
840,75	284,67
840,92	299,00
841,09	299,41
841,27	270,33
841,44	264,19
841,61	308,01
841,79	318,25
841,96	298,59
842,13	289,99
842,31	280,98
842,48	291,63
842,65	304,33
842,83	254,36
843,00	234,70
843,17	309,24
843,35	298,18
843,52	310,88
843,69	258,45
843,86	261,32
844,04	272,38
844,21	264,60
844,38	273,61
844,56	247,39
844,73	266,65
844,90	224,46
845,08	260,09
845,25	312,93
845,42	219,54
845,60	280,16
845,77	228,14
845,94	280,98
846,11	233,47
846,29	178,17
846,46	255,59
846,63	203,98
846,81	244,94
846,98	221,18
847,15	295,32
847,32	190,05
847,50	227,32
847,67	240,84
847,84	228,14
848,01	276,89
848,19	182,27
848,36	220,77
848,53	192,10
848,71	190,05
848,88	201,52
849,05	235,52
849,22	242,48
849,40	235,93
849,57	210,12
849,74	182,68
849,91	214,63
850,09	237,97
850,26	172,85
850,43	179,40
850,60	197,01
850,78	235,93
850,95	203,98
851,12	246,99
851,29	183,09
851,47	184,73
851,64	217,49
851,81	148,27
851,98	208,48
852,15	167,52
852,33	200,29
852,50	196,20
852,67	147,45
852,84	197,42
853,02	158,92
853,19	185,55
853,36	180,63
853,53	203,16
853,70	206,44
853,88	142,95
854,05	162,61
854,22	165,07
854,39	135,17
854,56	99,53
854,74	153,19
854,91	117,96
855,08	140,90
855,25	81,92
855,42	105,68
855,60	199,47
855,77	112,23
855,94	83,56
856,11	147,45
856,28	109,77
856,46	133,94
856,63	150,73
856,80	163,43
856,97	190,87
857,14	132,71
857,31	128,61
857,49	208,07
857,66	166,30
857,83	148,68
858,00	166,30
858,17	170,39
858,34	224,87
858,52	192,92
858,69	179,81
858,86	196,20
859,03	163,43
859,20	167,52
859,37	179,40
859,55	78,64
859,72	139,26
859,89	177,76
860,06	169,16
860,23	126,56
860,40	121,65
860,57	139,26
860,75	115,10
860,92	149,91
861,09	142,13
861,26	106,90
861,43	116,73
861,60	107,31
861,77	139,67
861,95	128,20
862,12	151,96
862,29	99,12
862,46	120,01
862,63	79,46
862,80	82,74
862,97	77,41
863,14	151,55
863,31	115,51
863,49	105,27
863,66	83,15
863,83	78,64
864,00	79,87
864,17	132,30
864,34	115,10
864,51	74,14
864,68	127,38
864,85	147,04
865,02	63,08
865,20	46,69
865,37	146,22
865,54	79,46
865,71	79,87
865,88	40,96
866,05	111,41
866,22	47,10
866,39	87,24
866,56	73,32
866,73	84,38
866,90	25,80
867,07	81,10
867,25	44,24
867,42	35,23
867,59	89,70
867,76	66,76
867,93	108,54
868,10	74,55
868,27	133,12
868,44	7,78
868,61	75,77
868,78	52,84
868,95	65,54
869,12	51,61
869,29	80,28
869,46	54,07
869,63	46,28
869,80	56,11
869,97	49,56
870,14	85,61
870,32	118,37
870,49	52,84
870,66	28,67
870,83	52,02
871,00	93,80
871,17	43,83
871,34	32,36
871,51	81,92
871,68	81,51
871,85	58,98
872,02	38,91
872,19	85,20
872,36	22,12
872,53	7,78
872,70	108,95
872,87	101,17
873,04	115,92
873,21	36,86
873,38	33,18
873,55	53,66
873,72	42,19
873,89	53,25
874,06	65,13
874,23	46,28
874,40	30,72
874,57	30,72
874,74	2,46
874,91	33,18
875,08	43,42
875,25	13,11
875,42	13,11
875,59	-14,34
875,76	42,60
875,93	34,41
876,10	44,24
876,27	42,19
876,44	-31,13
876,61	64,72
876,78	16,38
876,95	20,07
877,12	6,96
877,29	35,23
877,46	45,46
877,62	12,29
877,79	24,99
877,96	32,36
878,13	41,37
878,30	25,39
878,47	43,01
878,64	-45,87
878,81	-2,05
878,98	-17,61
879,15	31,95
879,32	6,55
879,49	-4,92
879,66	1,23
879,83	13,93
880,00	-6,96
880,17	46,28
880,34	-8,19
880,51	64,72
880,67	9,42
880,84	-4,10
881,01	-21,71
881,18	-59,80
881,35	23,76
881,52	-36,04
881,69	-15,97
881,86	-40,96
882,03	50,38
882,20	13,93
882,37	24,17
882,54	38,50
882,70	19,25
882,87	-18,84
883,04	10,65
883,21	-41,37
883,38	15,56
883,55	-27,85
883,72	-21,30
883,89	7,37
884,06	35,63
884,23	11,88
884,39	19,25
884,56	13,52
884,73	-17,61
884,90	17,20
885,07	-48,33
885,24	-67,17
885,41	-9,83
885,58	0,82
885,74	6,96
885,91	-37,27
886,08	-18,84
886,25	-14,75
886,42	8,60
886,59	-3,69
886,76	17,20
886,93	-35,23
887,09	-79,05
887,26	-47,10
887,43	37,68
887,60	18,84
887,77	-81,10
887,94	-25,80
888,10	-45,06
888,27	-49,97
888,44	-35,63
888,61	-31,13
888,78	-1,23
888,95	8,60
889,12	-5,32
889,28	-3,28
889,45	-84,79
889,62	-83,56
889,79	-32,77
889,96	-34,00
890,13	-67,17
890,29	-55,70
890,46	-58,98
890,63	-13,11
890,80	8,60
890,97	-2,87
891,13	-7,37
891,30	-34,41
891,47	-59,80
891,64	-9,42
891,81	-16,79
891,98	-36,04
892,14	-24,99
892,31	-41,78
892,48	-8,19
892,65	12,70
892,82	-46,28
892,98	-12,29
893,15	-67,17
893,32	-35,23
>>>>>End Processed Spectral Data<<<<<
