SpectraSuite Datei
++++++++++++++++++++++++++++++++++++
Datum: Mon Mar 09 09:51:23 CET 2020
Benutzer: Lichtquellen1
Dark-Spektrum vorhanden: Ja
Referenz-Spektrum vorhanden: Nein
Zahl der probierten Teilspektren: 1
Spektrometer: USB4F05832
Integrationszeit (usec): 200000 (USB4F05832)
Spektren Durchschnitt berechnet: 5 (USB4F05832)
Boxcar Glättung: 0 (USB4F05832)
Dunkelstromkorrektur: Nein (USB4F05832)
Puls/Lampe aktiviert: Nein (USB4F05832)
Correct for Detector Non-linearity: Nein (USB4F05832)
Streulichtkorrektur: Nein (USB4F05832)
Anzahl Pixel in verarbeitetem Spektrum: 3648
>>>>>Begin Processed Spectral Data<<<<<
177,54	-25,80
177,75	-25,80
177,97	-25,80
178,19	-56,52
178,41	-41,37
178,63	-55,70
178,85	-12,29
179,07	-0,82
179,29	-61,85
179,51	-3,69
179,73	-75,77
179,95	49,97
180,17	-61,44
180,39	-62,67
180,61	-61,44
180,83	-38,09
181,05	-29,90
181,27	-36,04
181,49	-54,07
181,71	-23,35
181,92	-30,72
182,14	-8,19
182,36	-44,65
182,58	-27,85
182,80	11,88
183,02	39,32
183,24	0,41
183,46	-48,33
183,68	-1,23
183,90	-27,85
184,12	0,41
184,34	32,36
184,56	-23,76
184,78	42,19
185,00	7,37
185,21	-42,60
185,43	-20,89
185,65	-15,97
185,87	9,83
186,09	0,82
186,31	8,60
186,53	-38,91
186,75	-19,66
186,97	23,76
187,19	-57,34
187,41	-13,11
187,63	-19,66
187,84	-38,50
188,06	-32,36
188,28	-9,83
188,50	-2,46
188,72	-43,01
188,94	-25,80
189,16	-1,64
189,38	-21,30
189,60	26,21
189,82	-13,52
190,03	-28,67
190,25	-22,94
190,47	-62,26
190,69	39,73
190,91	-38,09
191,13	2,87
191,35	-27,44
191,57	-14,34
191,79	6,55
192,01	-2,46
192,22	-28,67
192,44	23,76
192,66	-22,12
192,88	-25,39
193,10	-76,18
193,32	-31,54
193,54	3,69
193,76	-5,73
193,98	-9,01
194,19	43,83
194,41	-20,89
194,63	-29,90
194,85	-18,02
195,07	-13,52
195,29	-3,69
195,51	-53,25
195,73	-68,81
195,94	-27,85
196,16	-35,23
196,38	-3,28
196,60	-7,78
196,82	-0,41
197,04	-57,75
197,26	-72,09
197,48	-18,43
197,69	-31,95
197,91	16,79
198,13	8,60
198,35	-42,19
198,57	24,99
198,79	-9,01
199,01	-34,82
199,22	35,63
199,44	2,46
199,66	-2,05
199,88	-42,19
200,10	-60,21
200,32	4,51
200,54	-4,51
200,75	-46,69
200,97	-11,06
201,19	-12,29
201,41	-52,43
201,63	-6,96
201,85	-27,85
202,06	-4,92
202,28	-23,76
202,50	16,38
202,72	3,28
202,94	-21,30
203,16	11,47
203,38	9,42
203,59	15,56
203,81	-44,24
204,03	-13,52
204,25	5,73
204,47	4,10
204,69	-23,35
204,90	-2,87
205,12	1,23
205,34	-1,64
205,56	-26,62
205,78	-22,53
206,00	-35,23
206,21	18,02
206,43	-30,72
206,65	-14,34
206,87	-11,88
207,09	-7,37
207,30	-12,29
207,52	-56,93
207,74	-15,56
207,96	-47,10
208,18	-0,82
208,40	-48,74
208,61	-0,82
208,83	-24,99
209,05	-55,30
209,27	21,30
209,49	-8,19
209,70	-3,69
209,92	-50,79
210,14	-34,00
210,36	15,97
210,58	2,05
210,79	-41,78
211,01	13,11
211,23	-34,00
211,45	9,01
211,67	11,06
211,88	-11,88
212,10	-25,80
212,32	-36,04
212,54	-2,87
212,76	9,42
212,97	-46,28
213,19	-15,15
213,41	-21,30
213,63	-10,65
213,85	-43,42
214,06	-3,69
214,28	-0,82
214,50	-0,82
214,72	2,46
214,94	-8,19
215,15	-8,60
215,37	20,89
215,59	-5,32
215,81	-41,78
216,02	-64,31
216,24	-13,93
216,46	27,85
216,68	-16,38
216,90	-3,69
217,11	-41,37
217,33	-9,01
217,55	-36,45
217,77	-10,65
217,98	-4,10
218,20	-14,34
218,42	-83,56
218,64	-9,42
218,85	-11,47
219,07	-27,85
219,29	-24,99
219,51	5,73
219,73	15,97
219,94	-32,77
220,16	18,02
220,38	1,64
220,60	10,65
220,81	-2,05
221,03	-24,17
221,25	11,88
221,47	37,68
221,68	2,05
221,90	43,01
222,12	34,00
222,34	-37,27
222,55	-21,71
222,77	11,88
222,99	35,63
223,21	-9,42
223,42	28,67
223,64	13,52
223,86	-49,15
224,08	-25,39
224,29	-28,67
224,51	-18,02
224,73	-26,21
224,94	36,86
225,16	-18,43
225,38	5,32
225,60	-45,06
225,81	19,25
226,03	-28,67
226,25	-35,23
226,47	0,82
226,68	-22,94
226,90	-19,25
227,12	-9,42
227,33	-8,19
227,55	-4,10
227,77	-14,75
227,99	-4,10
228,20	-24,58
228,42	-27,03
228,64	-44,65
228,86	-9,01
229,07	25,39
229,29	34,00
229,51	1,23
229,72	-10,24
229,94	9,42
230,16	4,10
230,38	23,35
230,59	-14,75
230,81	-13,52
231,03	17,61
231,24	-2,46
231,46	24,17
231,68	-34,82
231,89	7,37
232,11	6,96
232,33	-17,20
232,55	-21,30
232,76	3,69
232,98	25,80
233,20	-32,36
233,41	16,79
233,63	-12,29
233,85	-6,55
234,06	0,00
234,28	-45,87
234,50	10,65
234,71	-17,61
234,93	-5,73
235,15	-16,79
235,37	57,34
235,58	-11,06
235,80	-12,29
236,02	8,19
236,23	6,96
236,45	-8,60
236,67	-14,34
236,88	2,05
237,10	-7,37
237,32	27,85
237,53	-28,67
237,75	-22,12
237,97	-21,30
238,18	-5,32
238,40	-13,11
238,62	-10,24
238,83	-4,10
239,05	-28,67
239,27	-21,71
239,48	1,23
239,70	-24,58
239,92	-22,94
240,13	18,84
240,35	-28,26
240,57	-16,38
240,78	-11,47
241,00	-59,39
241,22	19,66
241,43	-59,39
241,65	-27,85
241,87	-23,76
242,08	-42,60
242,30	9,83
242,52	-7,37
242,73	-17,20
242,95	9,83
243,16	-2,05
243,38	14,75
243,60	-53,25
243,81	20,48
244,03	11,06
244,25	-38,09
244,46	18,43
244,68	3,28
244,90	-39,73
245,11	13,11
245,33	67,17
245,55	-32,77
245,76	15,56
245,98	5,73
246,19	2,87
246,41	-19,25
246,63	35,23
246,84	-57,34
247,06	-6,14
247,28	18,02
247,49	-9,83
247,71	27,03
247,92	-23,35
248,14	-16,38
248,36	26,62
248,57	23,76
248,79	4,10
249,01	-58,98
249,22	49,15
249,44	11,88
249,65	-24,99
249,87	23,35
250,09	2,46
250,30	10,65
250,52	-61,03
250,73	-63,08
250,95	-19,66
251,17	9,01
251,38	-9,42
251,60	2,05
251,81	36,45
252,03	11,88
252,25	9,01
252,46	-9,42
252,68	-33,59
252,89	-26,62
253,11	10,24
253,33	21,30
253,54	-45,06
253,76	21,71
253,97	-11,06
254,19	6,14
254,41	-11,06
254,62	-0,82
254,84	25,80
255,05	34,82
255,27	15,56
255,49	-16,79
255,70	11,88
255,92	5,73
256,13	19,66
256,35	-6,96
256,56	22,94
256,78	-36,45
257,00	-5,32
257,21	-15,56
257,43	11,47
257,64	-3,69
257,86	-6,14
258,08	2,87
258,29	-23,76
258,51	-3,69
258,72	25,39
258,94	-19,66
259,15	-32,36
259,37	-30,31
259,59	2,46
259,80	-8,19
260,02	-9,42
260,23	-8,60
260,45	-62,26
260,66	-20,48
260,88	0,00
261,09	17,61
261,31	-79,46
261,53	11,88
261,74	18,84
261,96	41,78
262,17	-20,48
262,39	27,03
262,60	-30,72
262,82	-11,47
263,03	12,70
263,25	14,34
263,46	-11,47
263,68	11,88
263,90	2,46
264,11	-24,58
264,33	34,41
264,54	39,73
264,76	24,17
264,97	-10,24
265,19	20,07
265,40	0,82
265,62	-8,60
265,83	-41,78
266,05	52,02
266,26	7,78
266,48	-0,41
266,70	13,11
266,91	-18,84
267,13	0,41
267,34	-11,06
267,56	4,10
267,77	54,48
267,99	12,70
268,20	-0,41
268,42	3,69
268,63	8,19
268,85	8,19
269,06	-8,19
269,28	13,11
269,49	14,75
269,71	-20,07
269,92	38,91
270,14	-15,56
270,35	22,53
270,57	47,10
270,78	-22,12
271,00	30,72
271,21	8,60
271,43	28,67
271,64	7,37
271,86	-2,46
272,07	-6,55
272,29	-49,56
272,50	9,83
272,72	-8,60
272,93	-42,19
273,15	-31,95
273,36	7,37
273,58	16,79
273,79	-18,02
274,01	9,42
274,22	29,49
274,44	-38,09
274,65	12,29
274,87	14,34
275,08	21,71
275,30	-23,35
275,51	9,83
275,73	18,02
275,94	9,01
276,16	2,46
276,37	45,87
276,59	-1,23
276,80	21,30
277,02	19,25
277,23	27,03
277,45	-16,79
277,66	-9,01
277,88	-5,32
278,09	6,55
278,30	12,70
278,52	22,94
278,73	-2,87
278,95	-27,85
279,16	-5,32
279,38	-8,19
279,59	-19,66
279,81	0,82
280,02	-6,14
280,24	20,07
280,45	-5,32
280,67	1,64
280,88	-16,79
281,09	36,86
281,31	20,89
281,52	-23,35
281,74	-36,45
281,95	20,89
282,17	29,08
282,38	34,82
282,60	22,53
282,81	14,75
283,02	45,06
283,24	61,03
283,45	5,73
283,67	15,56
283,88	8,19
284,10	40,96
284,31	34,00
284,53	36,04
284,74	-9,42
284,95	-33,59
285,17	29,49
285,38	14,75
285,60	25,80
285,81	5,32
286,03	-2,87
286,24	52,84
286,45	35,63
286,67	8,19
286,88	40,96
287,10	-0,41
287,31	31,13
287,53	39,32
287,74	35,23
287,95	39,32
288,17	34,82
288,38	3,69
288,60	68,40
288,81	14,75
289,02	25,39
289,24	-27,44
289,45	30,72
289,67	-21,71
289,88	34,82
290,10	51,61
290,31	24,99
290,52	-18,02
290,74	1,64
290,95	2,87
291,17	-10,24
291,38	29,08
291,59	-5,73
291,81	65,13
292,02	55,70
292,24	47,51
292,45	5,32
292,66	10,24
292,88	26,21
293,09	-23,76
293,31	16,38
293,52	6,96
293,73	-7,78
293,95	45,87
294,16	29,49
294,37	7,37
294,59	18,84
294,80	51,20
295,02	6,96
295,23	40,14
295,44	2,46
295,66	76,18
295,87	-20,89
296,09	-10,24
296,30	29,08
296,51	32,36
296,73	29,90
296,94	28,26
297,15	11,06
297,37	27,44
297,58	41,78
297,79	6,14
298,01	-36,45
298,22	24,17
298,44	63,08
298,65	-2,05
298,86	1,64
299,08	18,43
299,29	60,21
299,50	0,41
299,72	2,05
299,93	44,65
300,14	-9,01
300,36	27,44
300,57	28,26
300,79	70,04
301,00	45,87
301,21	43,42
301,43	62,26
301,64	27,03
301,85	55,70
302,07	27,03
302,28	92,57
302,49	-9,42
302,71	-2,87
302,92	48,33
303,13	61,85
303,35	17,61
303,56	41,78
303,77	72,09
303,99	37,27
304,20	38,50
304,41	15,56
304,63	55,30
304,84	43,01
305,05	52,43
305,27	46,69
305,48	93,80
305,69	79,05
305,91	38,91
306,12	13,52
306,33	56,93
306,55	-1,23
306,76	41,37
306,97	46,28
307,19	-11,47
307,40	61,03
307,61	79,05
307,82	73,73
308,04	60,21
308,25	85,61
308,46	46,28
308,68	83,97
308,89	70,86
309,10	88,88
309,32	90,11
309,53	104,86
309,74	118,78
309,96	113,05
310,17	138,03
310,38	131,48
310,59	101,99
310,81	155,24
311,02	126,15
311,23	183,91
311,45	205,21
311,66	186,77
311,87	230,19
312,09	251,08
312,30	193,74
312,51	253,13
312,72	290,81
312,94	285,90
313,15	322,76
313,36	321,12
313,58	364,95
313,79	352,66
314,00	391,98
314,21	462,84
314,43	496,84
314,64	550,08
314,85	582,03
315,06	646,75
315,28	700,81
315,49	715,15
315,70	756,93
315,92	919,54
316,13	867,52
316,34	962,95
316,55	981,39
316,77	1043,64
316,98	1107,95
317,19	1154,64
317,40	1247,62
317,62	1278,75
317,83	1289,40
318,04	1433,58
318,25	1466,76
318,47	1480,68
318,68	1574,07
318,89	1654,35
319,11	1653,94
319,32	1801,80
319,53	1705,55
319,74	1880,04
319,96	1864,88
320,17	1938,61
320,38	2174,12
320,59	2155,28
320,81	2329,77
321,02	2356,39
321,23	2572,25
321,44	2549,72
321,65	2693,08
321,87	2785,65
322,08	2812,68
322,29	2999,46
322,50	3008,47
322,72	3054,34
322,93	3193,60
323,14	3351,30
323,35	3344,74
323,57	3531,11
323,78	3530,29
323,99	3773,18
324,20	3827,65
324,41	4006,65
324,63	4076,28
324,84	4095,12
325,05	4210,62
325,26	4452,28
325,48	4235,61
325,69	4397,81
325,90	4381,42
326,11	4386,34
326,32	4311,79
326,54	4358,90
326,75	4392,07
326,96	4515,77
327,17	4551,00
327,39	4532,97
327,60	4989,26
327,81	4896,69
328,02	4927,00
328,23	5043,33
328,45	5166,21
328,66	5196,52
328,87	5297,69
329,08	5436,13
329,29	5804,35
329,51	5969,83
329,72	6175,85
329,93	6539,98
330,14	6783,28
330,35	6992,58
330,56	7236,29
330,78	7656,13
330,99	8253,72
331,20	8524,87
331,41	8634,65
331,62	8576,07
331,84	8845,59
332,05	8659,63
332,26	8762,44
332,47	8836,17
332,68	9139,27
332,90	9698,77
333,11	9702,87
333,32	10038,73
333,53	10139,08
333,74	10037,50
333,95	9991,22
334,17	9890,05
334,38	9735,63
334,59	9901,11
334,80	9705,73
335,01	9342,42
335,22	9604,56
335,44	9763,90
335,65	9547,63
335,86	9961,73
336,07	9588,59
336,28	9904,80
336,49	9812,64
336,71	9897,42
336,92	9746,28
337,13	9834,35
337,34	9691,40
337,55	10059,62
337,76	9872,03
337,97	9596,37
338,19	10072,73
338,40	10050,61
338,61	10164,07
338,82	10215,27
339,03	10396,31
339,24	10331,59
339,45	10125,98
339,67	10150,96
339,88	9917,08
340,09	9968,69
340,30	9447,69
340,51	9356,76
340,72	9584,90
340,93	9420,25
341,15	9497,66
341,36	9603,34
341,57	9634,46
341,78	9718,02
341,99	9729,08
342,20	10080,92
342,41	10307,43
342,62	10323,40
342,84	10556,87
343,05	10719,07
343,26	10939,43
343,47	11191,74
343,68	11150,78
343,89	11142,59
344,10	11405,14
344,31	11189,28
344,53	11380,15
344,74	11322,40
344,95	11267,92
345,16	11367,46
345,37	11332,64
345,58	11378,92
345,79	11719,30
346,00	11774,18
346,21	11815,96
346,42	12008,88
346,64	11729,54
346,85	11988,40
347,06	11589,05
347,27	11611,98
347,48	11407,60
347,69	10726,44
347,90	10763,30
348,11	10950,08
348,32	10706,78
348,53	10743,23
348,75	11207,71
348,96	10966,87
349,17	11377,70
349,38	11180,68
349,59	11152,83
349,80	11621,81
350,01	11434,63
350,22	11906,89
350,43	11481,73
350,64	12087,11
350,85	11746,74
351,06	11802,85
351,28	11836,85
351,49	11724,21
351,70	12044,10
351,91	11874,53
352,12	11981,85
352,33	11526,38
352,54	12098,58
352,75	11736,50
352,96	11823,74
353,17	12373,42
353,38	12123,97
353,59	12581,90
353,80	12954,22
354,01	12872,30
354,22	12984,94
354,44	13157,79
354,65	13077,51
354,86	13310,57
355,07	12999,69
355,28	13166,80
355,49	13211,45
355,70	13011,16
355,91	12928,01
356,12	12781,37
356,33	12839,94
356,54	12916,54
356,75	12990,27
356,96	13519,87
357,17	13211,45
357,38	13825,02
357,59	13489,15
357,80	13981,89
358,01	14682,30
358,22	14167,44
358,43	14452,93
358,64	14312,02
358,85	14485,28
359,07	14235,43
359,28	14273,11
359,49	14041,28
359,70	13548,95
359,91	13702,55
360,12	12970,61
360,33	12646,62
360,54	12469,26
360,75	12270,61
360,96	11886,00
361,17	11254,82
361,38	11235,98
361,59	11316,67
361,80	10780,92
362,01	10602,33
362,22	10582,26
362,43	11090,16
362,64	11225,74
362,85	11811,45
363,06	11950,31
363,27	12595,01
363,48	12769,49
363,69	13058,26
363,90	12915,72
364,11	12903,84
364,32	12749,02
364,53	12753,52
364,74	12507,76
364,95	12768,68
365,16	12417,24
365,37	12885,82
365,58	12787,11
365,79	13245,03
366,00	13441,23
366,21	13546,08
366,42	13421,98
366,63	13527,65
366,84	13517,41
367,05	13648,89
367,26	13741,46
367,47	13780,37
367,68	13674,70
367,89	13719,34
368,10	13175,40
368,31	12799,40
368,52	13290,91
368,73	14674,52
368,94	14845,32
369,15	14821,56
369,36	15636,65
369,57	15985,62
369,78	16215,00
369,99	16828,16
370,20	16765,90
370,40	16957,59
370,61	17231,61
370,82	17217,68
371,03	16888,37
371,24	16977,66
371,45	16928,92
371,66	16570,52
371,87	16319,44
372,08	16787,20
372,29	16767,13
372,50	16539,81
372,71	17247,17
372,92	17551,50
373,13	17266,83
373,34	17524,47
373,55	17404,46
373,76	17259,46
373,97	16881,00
374,18	17185,73
374,39	17215,63
374,60	17455,25
374,81	17347,93
375,01	16670,47
375,22	16977,25
375,43	16462,39
375,64	16785,97
375,85	15977,02
376,06	16023,31
376,27	15863,57
376,48	15467,49
376,69	14496,75
376,90	14652,40
377,11	14744,97
377,32	13996,64
377,53	14107,64
377,74	14130,17
377,94	13845,50
378,15	14015,07
378,36	13925,78
378,57	14624,54
378,78	14445,55
378,99	14947,71
379,20	15191,01
379,41	15299,96
379,62	15360,58
379,83	15671,06
380,04	16047,88
380,25	16145,78
380,45	16582,40
380,66	17182,05
380,87	17751,38
381,08	17900,48
381,29	18691,40
381,50	18387,89
381,71	18821,65
381,92	19166,94
382,13	18727,45
382,34	17707,97
382,55	17510,54
382,75	17310,25
382,96	16963,73
383,17	17149,28
383,38	17090,30
383,59	17122,25
383,80	17124,30
384,01	17245,13
384,22	17655,95
384,43	17258,64
384,63	16392,35
384,84	16169,53
385,05	15373,28
385,26	15137,36
385,47	14882,59
385,68	14243,62
385,89	13568,61
386,10	12899,75
386,30	12883,77
386,51	11753,70
386,72	11866,75
386,93	11582,08
387,14	11536,21
387,35	12280,03
387,56	12381,20
387,77	12821,92
387,97	13476,86
388,18	14099,04
388,39	13918,81
388,60	14338,65
388,81	13933,56
389,02	14316,53
389,23	14632,74
389,43	14266,97
389,64	14664,28
389,85	14217,00
390,06	14468,49
390,27	15020,21
390,48	14755,61
390,69	14743,33
390,89	15594,05
391,10	14780,19
391,31	14516,82
391,52	14977,21
391,73	15081,24
391,94	14930,51
392,14	15059,53
392,35	15734,95
392,56	16463,62
392,77	16872,80
392,98	16899,43
393,19	17113,24
393,39	17531,84
393,60	17658,41
393,81	18577,94
394,02	18280,58
394,23	18786,84
394,44	18905,62
394,64	19003,51
394,85	19777,23
395,06	18505,04
395,27	18535,76
395,48	18111,83
395,69	16400,13
395,89	16324,36
396,10	15376,97
396,31	13722,62
396,52	13204,48
396,73	12633,92
396,93	12859,61
397,14	12364,41
397,35	13572,30
397,56	13649,30
397,77	14483,23
397,97	15634,19
398,18	16645,48
398,39	16369,00
398,60	17146,82
398,81	17020,26
399,01	17485,97
399,22	16461,98
399,43	16157,24
399,64	15173,81
399,85	14128,12
400,05	13951,99
400,26	14084,29
400,47	14271,88
400,68	15055,85
400,89	15650,99
401,09	16881,41
401,30	18177,77
401,51	18466,53
401,72	19559,74
401,93	20908,53
402,13	21732,23
402,34	21948,90
402,55	22802,49
402,76	23250,18
402,96	23645,85
403,17	23318,17
403,38	24510,50
403,59	24054,21
403,80	26140,68
404,00	25348,53
404,21	25206,81
404,42	26469,59
404,63	26754,66
404,83	27044,66
405,04	25801,54
405,25	26495,80
405,46	26338,93
405,66	26009,20
405,87	26608,85
406,08	26433,54
406,29	27275,26
406,49	26171,81
406,70	26229,97
406,91	25517,28
407,12	27225,70
407,32	25414,47
407,53	27028,27
407,74	25951,04
407,95	25099,50
408,15	26122,25
408,36	25183,05
408,57	25366,96
408,78	25500,90
408,98	25236,71
409,19	24368,78
409,40	25470,18
409,61	24559,65
409,81	24620,68
410,02	24851,28
410,23	24839,81
410,44	26038,28
410,64	25011,02
410,85	24466,26
411,06	25325,18
411,26	25226,06
411,47	25297,74
411,68	25847,82
411,89	25145,37
412,09	26227,52
412,30	25914,18
412,51	24823,84
412,72	24759,53
412,92	25783,11
413,13	24744,38
413,34	24514,60
413,54	24388,44
413,75	25061,40
413,96	25012,25
414,17	24786,16
414,37	25301,43
414,58	25717,57
414,79	26425,76
414,99	25999,78
415,20	26782,11
415,41	26559,29
415,61	26690,36
415,82	26592,87
416,03	25278,90
416,24	25862,98
416,44	26271,34
416,65	26664,96
416,86	27135,18
417,06	26421,66
417,27	25729,45
417,48	25726,58
417,68	26525,29
417,89	26670,70
418,10	25800,72
418,30	25995,28
418,51	25906,80
418,72	25884,28
418,92	27265,43
419,13	25686,44
419,34	26658,41
419,55	25860,93
419,75	26482,69
419,96	25721,26
420,17	26684,21
420,37	25942,44
420,58	24757,89
420,79	24552,28
420,99	25733,96
421,20	25464,03
421,41	25205,58
421,61	25657,77
421,82	24396,63
422,03	25518,10
422,23	24536,71
422,44	25142,50
422,65	24898,38
422,85	24662,46
423,06	24550,23
423,26	25188,79
423,47	25836,35
423,68	24963,51
423,88	25690,13
424,09	25533,66
424,30	25496,39
424,50	26089,07
424,71	26365,96
424,92	25315,35
425,12	24835,31
425,33	25635,24
425,54	25373,51
425,74	25475,09
425,95	24305,29
426,15	25496,80
426,36	23799,04
426,57	25088,85
426,77	24327,00
426,98	25031,50
427,19	24770,18
427,39	25160,52
427,60	24137,77
427,81	24662,46
428,01	24232,39
428,22	25696,68
428,42	23405,01
428,63	24665,33
428,84	24845,55
429,04	24024,72
429,25	24240,99
429,45	23504,95
429,66	24236,48
429,87	24018,58
430,07	23796,17
430,28	23450,47
430,49	23446,78
430,69	24148,01
430,90	23447,60
431,10	23270,25
431,31	23221,51
431,52	24053,80
431,72	22633,74
431,93	22307,70
432,13	22704,60
432,34	22615,31
432,55	21053,94
432,75	21843,23
432,96	21083,84
433,16	19826,80
433,37	19827,20
433,58	19929,19
433,78	19677,29
433,99	18687,71
434,19	20923,28
434,40	21351,30
434,60	22339,65
434,81	22415,02
435,02	22452,70
435,22	23262,47
435,43	22935,61
435,63	23298,10
435,84	23992,77
436,05	24807,05
436,25	22856,56
436,46	24286,45
436,66	23921,50
436,87	23546,32
437,07	23096,58
437,28	23512,32
437,48	24471,59
437,69	23611,44
437,90	24208,22
438,10	24573,99
438,31	24341,34
438,51	25833,49
438,72	25280,95
438,92	25576,67
439,13	26039,51
439,34	25908,85
439,54	25908,44
439,75	25597,97
439,95	25459,53
440,16	26028,86
440,36	26014,53
440,57	24760,35
440,77	25602,89
440,98	24416,70
441,18	23985,40
441,39	23605,71
441,60	25171,17
441,80	24170,13
442,01	23371,83
442,21	24572,76
442,42	23800,26
442,62	24263,92
442,83	24327,00
443,03	24517,05
443,24	24591,60
443,44	24698,91
443,65	24953,27
443,85	24983,58
444,06	25480,42
444,26	25474,68
444,47	25183,87
444,67	26725,17
444,88	25866,25
445,09	25502,13
445,29	26312,71
445,50	25906,40
445,70	25641,80
445,91	26020,26
446,11	25685,62
446,32	26212,36
446,52	26196,39
446,73	26207,45
446,93	26488,84
447,14	26168,94
447,34	26547,00
447,55	25653,27
447,75	26103,41
447,96	26172,63
448,16	25168,31
448,37	25265,79
448,57	24850,05
448,78	25186,74
448,98	24802,54
449,19	24545,72
449,39	25392,35
449,60	25025,36
449,80	25771,64
450,01	26012,48
450,21	25652,04
450,42	26003,47
450,62	25929,74
450,83	25780,65
451,03	25857,24
451,23	25907,62
451,44	25840,04
451,64	26483,92
451,85	25718,80
452,05	26490,89
452,26	26316,81
452,46	26590,01
452,67	26254,55
452,87	26236,53
453,08	26642,03
453,28	26201,30
453,49	27390,76
453,69	26740,74
453,90	27112,65
454,10	27627,51
454,31	27097,08
454,51	26867,30
454,71	26674,38
454,92	26019,85
455,12	25547,59
455,33	26203,35
455,53	26017,80
455,74	26336,47
455,94	26792,35
456,15	27050,39
456,35	27874,08
456,55	27310,07
456,76	27804,86
456,96	29254,41
457,17	26630,97
457,37	29679,98
457,58	28015,39
457,78	29443,24
457,99	28928,79
458,19	26619,50
458,39	28949,27
458,60	29584,96
458,80	29900,34
459,01	29075,83
459,21	29346,98
459,42	29931,88
459,62	28203,40
459,82	30908,76
460,03	29847,10
460,23	30587,64
460,44	30203,44
460,64	28225,11
460,85	30977,17
461,05	28720,71
461,25	28555,65
461,46	30883,78
461,66	29575,95
461,87	28750,20
462,07	28828,44
462,27	27791,76
462,48	27053,26
462,68	28579,40
462,89	28124,35
463,09	27801,59
463,29	28863,25
463,50	28569,98
463,70	29741,83
463,91	28409,42
464,11	27817,15
464,31	29541,95
464,52	29200,35
464,72	29870,44
464,93	29573,08
465,13	31034,10
465,33	29252,78
465,54	28362,73
465,74	28047,75
465,95	29360,09
466,15	29938,44
466,35	29872,90
466,56	29177,41
466,76	29009,48
466,96	28465,13
467,17	28428,26
467,37	28481,10
467,58	28291,05
467,78	28037,10
467,98	29150,38
468,19	27805,68
468,39	29161,44
468,59	29343,71
468,80	28650,67
469,00	28144,42
469,21	27629,56
469,41	27849,92
469,61	29208,13
469,82	27647,17
470,02	29066,82
470,22	30448,38
470,43	29355,17
470,63	28496,67
470,83	30601,98
471,04	29016,44
471,24	29450,61
471,45	28878,00
471,65	29255,64
471,85	28921,82
472,06	29479,28
472,26	29603,39
472,46	29582,50
472,67	29773,37
472,87	29549,32
473,07	29436,68
473,28	28872,26
473,48	29731,18
473,68	30154,70
473,89	30285,77
474,09	30198,94
474,29	30343,52
474,50	31334,33
474,70	30798,99
474,90	31482,19
475,11	32126,90
475,31	31625,14
475,51	31510,05
475,72	31577,63
475,92	31859,43
476,12	31067,69
476,33	32446,79
476,53	32355,86
476,73	32933,39
476,93	33406,88
477,14	32260,01
477,34	32688,04
477,54	33037,42
477,75	33346,26
477,95	32951,82
478,15	33031,69
478,36	33232,39
478,56	33093,54
478,76	33438,82
478,97	33746,43
479,17	32986,22
479,37	33209,45
479,57	33524,43
479,78	33834,90
479,98	33667,79
480,18	34537,76
480,39	35246,36
480,59	34878,55
480,79	34702,42
480,99	34990,77
481,20	34885,10
481,40	35447,88
481,60	36126,99
481,81	35538,81
482,01	35764,91
482,21	36113,47
482,41	36270,76
482,62	36441,56
482,82	36439,10
483,02	36863,03
483,23	37039,56
483,43	37444,65
483,63	36995,74
483,83	37781,75
484,04	38426,86
484,24	37766,18
484,44	38505,91
484,64	37878,82
484,85	37935,75
485,05	38598,48
485,25	38370,74
485,45	38419,89
485,66	38539,50
485,86	38655,41
486,06	38508,37
486,26	38556,29
486,47	38326,10
486,67	38697,60
486,87	38942,54
487,07	38356,41
487,28	38224,52
487,48	37889,47
487,68	38448,16
487,88	36872,86
488,09	36353,49
488,29	35367,60
488,49	35441,74
488,69	34643,44
488,90	34715,12
489,10	34160,53
489,30	34752,80
489,50	34934,66
489,71	35238,58
489,91	36038,93
490,11	35941,85
490,31	36773,33
490,52	36593,92
490,72	36790,94
490,92	37377,07
491,12	37248,87
491,32	37566,71
491,53	37850,97
491,73	37767,82
491,93	38644,35
492,13	38993,32
492,33	39180,92
492,54	39241,95
492,74	39711,75
492,94	39560,61
493,14	40002,56
493,35	39749,84
493,55	39657,28
493,75	39727,73
493,95	38877,82
494,15	38495,26
494,36	39080,57
494,56	38682,85
494,76	38858,57
494,96	39233,35
495,16	39138,32
495,37	39370,15
495,57	39033,06
495,77	39190,34
495,97	39178,46
496,17	39334,11
496,37	39304,21
496,58	39712,16
496,78	39353,77
496,98	40121,76
497,18	40189,34
497,38	39919,83
497,59	40203,26
497,79	40027,14
497,99	39823,16
498,19	39823,16
498,39	39891,56
498,59	40126,67
498,80	39658,91
499,00	40180,33
499,20	39918,19
499,40	39639,66
499,60	39679,39
499,80	39757,63
500,01	39550,37
500,21	38761,90
500,41	38527,62
500,61	38552,60
500,81	38155,30
501,01	38041,84
501,22	38174,55
501,42	37987,36
501,62	37709,66
501,82	37611,36
502,02	37240,67
502,22	36954,78
502,42	36818,79
502,63	36632,43
502,83	36083,98
503,03	36030,32
503,23	35901,30
503,43	35620,73
503,63	35207,04
503,83	35392,59
504,04	34783,11
504,24	35031,32
504,44	35021,49
504,64	35197,62
504,84	35130,45
505,04	35217,28
505,24	35777,60
505,44	35690,36
505,65	35189,43
505,85	35309,03
506,05	35231,21
506,25	34847,42
506,45	34350,99
506,65	34569,71
506,85	34930,97
507,05	35014,53
507,26	34862,57
507,46	34977,26
507,66	35300,43
507,86	35171,41
508,06	35628,51
508,26	35530,21
508,46	35398,73
508,66	35236,53
508,86	35313,53
509,06	35442,97
509,27	35031,73
509,47	34708,97
509,67	34737,24
509,87	34382,53
510,07	34103,19
510,27	34128,58
510,47	33887,74
510,67	34097,04
510,87	34161,35
511,07	34278,49
511,28	34526,71
511,48	34048,71
511,68	34299,38
511,88	34335,42
512,08	34051,99
512,28	34006,93
512,48	33718,58
512,68	33912,72
512,88	33766,50
513,08	34128,17
513,28	33986,45
513,48	34101,96
513,68	34564,39
513,89	34419,39
514,09	34000,38
514,29	34454,21
514,49	34020,86
514,69	33407,70
514,89	33721,03
515,09	33767,32
515,29	33780,02
515,49	33210,27
515,69	33204,54
515,89	33105,41
516,09	33332,74
516,29	33073,06
516,49	32824,84
516,69	32904,71
516,89	32790,44
517,09	32688,04
517,29	33058,31
517,50	33000,97
517,70	33076,74
517,90	32885,05
518,10	32797,40
518,30	32982,13
518,50	31961,42
518,70	31423,21
518,90	31069,32
519,10	30600,75
519,30	30359,91
519,50	30280,45
519,70	30427,08
519,90	30332,06
520,10	30666,69
520,30	30255,46
520,50	30220,65
520,70	30289,05
520,90	30323,86
521,10	30676,11
521,30	31030,00
521,50	31545,68
521,70	31667,33
521,90	32249,77
522,10	32568,03
522,30	32261,65
522,50	32802,73
522,70	32419,75
522,90	32969,02
523,10	32689,68
523,30	33256,15
523,50	33219,28
523,70	33530,57
523,90	33678,85
524,10	33707,93
524,30	33699,33
524,50	33613,31
524,70	33331,10
524,90	33329,05
525,10	33371,65
525,30	33024,32
525,50	33424,49
525,70	33895,11
525,90	33700,55
526,10	33829,99
526,30	34478,37
526,50	34292,83
526,70	34529,57
526,90	34396,04
527,10	34309,62
527,30	34342,39
527,50	34679,89
527,70	34372,70
527,90	34188,79
528,10	33664,51
528,30	33327,41
528,50	32927,65
528,70	32265,34
528,90	32144,51
529,10	31903,26
529,30	31648,08
529,50	31961,83
529,70	32001,15
529,90	32309,57
530,10	32321,86
530,29	32266,57
530,49	32866,62
530,69	33186,92
530,89	33422,03
531,09	33471,18
531,29	33535,08
531,49	33665,33
531,69	33473,23
531,89	33348,30
532,09	33435,55
532,29	33357,32
532,49	33623,55
532,69	33823,84
532,89	33912,31
533,09	33864,39
533,29	34165,85
533,49	33781,24
533,68	33748,89
533,88	34070,01
534,08	33727,18
534,28	32933,80
534,48	32565,57
534,68	32420,57
534,88	31921,69
535,08	32260,01
535,28	32057,67
535,48	32149,83
535,68	32075,70
535,88	32151,88
536,08	32290,73
536,27	32167,85
536,47	31970,84
536,67	32404,19
536,87	32145,74
537,07	32189,15
537,27	32477,92
537,47	32666,74
537,67	32666,33
537,87	32656,50
538,07	33038,24
538,27	32488,16
538,46	32567,62
538,66	32167,45
538,86	31378,16
539,06	31931,11
539,26	31808,64
539,46	31471,95
539,66	31622,28
539,86	31721,81
540,06	31780,79
540,25	31575,99
540,45	31679,62
540,65	31549,37
540,85	31546,91
541,05	31471,55
541,25	31080,79
541,45	30850,60
541,65	30683,49
541,85	30522,93
542,04	30313,21
542,24	29954,41
542,44	29815,97
542,64	29648,03
542,84	29526,38
543,04	29422,35
543,24	29321,59
543,43	29362,14
543,63	29470,27
543,83	29402,28
544,03	29296,19
544,23	29412,52
544,43	29488,29
544,63	29208,13
544,82	29565,30
545,02	29129,49
545,22	29113,10
545,42	28771,91
545,62	29290,05
545,82	29298,24
546,02	29258,10
546,21	29208,13
546,41	29082,39
546,61	28884,96
546,81	29234,34
547,01	28822,70
547,21	29310,94
547,40	28784,20
547,60	29036,51
547,80	28512,64
548,00	29014,39
548,20	28514,28
548,40	28544,59
548,59	28771,91
548,79	28569,16
548,99	28420,48
549,19	28193,57
549,39	28199,30
549,59	28057,99
549,78	27806,91
549,98	27874,90
550,18	27711,88
550,38	27675,84
550,58	27765,95
550,77	27862,21
550,97	27893,74
551,17	27298,19
551,37	27713,11
551,57	27478,42
551,76	27468,18
551,96	27482,51
552,16	27165,08
552,36	27410,01
552,56	27430,08
552,75	27215,87
552,95	27183,51
553,15	27009,02
553,35	27106,10
553,55	26825,52
553,74	27052,44
553,94	26789,89
554,14	26744,01
554,34	26508,50
554,54	26544,54
554,73	26708,79
554,93	26477,78
555,13	26493,34
555,33	26173,04
555,53	26484,33
555,72	26087,44
555,92	26193,93
556,12	26289,37
556,32	26129,62
556,51	26098,08
556,71	26177,55
556,91	25921,14
557,11	25942,85
557,30	26049,75
557,50	25924,01
557,70	25597,56
557,90	25822,43
558,10	25640,16
558,29	25175,68
558,49	25351,81
558,69	24996,28
558,89	24678,84
559,08	24885,28
559,28	24656,72
559,48	24628,46
559,68	24535,48
559,87	24635,43
560,07	24329,05
560,27	24298,74
560,47	23966,15
560,66	23889,15
560,86	23652,40
561,06	23416,88
561,25	23553,28
561,45	23450,06
561,65	23359,13
561,85	23208,40
562,04	23094,12
562,24	23327,18
562,44	23392,72
562,64	23445,56
562,83	23386,98
563,03	23382,07
563,23	23436,54
563,42	23175,63
563,62	23410,74
563,82	22783,65
564,02	23017,12
564,21	22847,55
564,41	22948,72
564,61	22926,60
564,80	22896,70
565,00	22814,37
565,20	22684,94
565,40	22739,01
565,59	22808,64
565,79	22702,96
565,99	22800,04
566,18	22600,97
566,38	22659,55
566,58	22529,29
566,78	22406,42
566,97	22493,66
567,17	22376,11
567,37	22091,44
567,56	21974,70
567,76	21814,14
567,96	21896,88
568,15	21595,42
568,35	21618,77
568,55	21665,87
568,74	21613,44
568,94	21615,49
569,14	21640,89
569,33	21587,64
569,53	21368,10
569,73	21525,38
569,92	21072,78
570,12	21011,75
570,32	21064,18
570,52	20876,99
570,71	20657,45
570,91	20668,92
571,11	20752,07
571,30	20534,57
571,50	20557,92
571,70	20542,36
571,89	20288,41
572,09	20412,51
572,28	20268,34
572,48	20232,70
572,68	19800,58
572,87	19964,83
573,07	19808,77
573,27	19728,90
573,46	19990,22
573,66	20109,82
573,86	19833,35
574,05	20121,29
574,25	19945,58
574,45	19828,84
574,64	19999,64
574,84	19826,39
575,04	19961,96
575,23	20145,87
575,43	20051,66
575,62	19998,41
575,82	19914,86
576,02	19779,28
576,21	19685,89
576,41	19826,39
576,61	19658,04
576,80	19524,51
577,00	19400,00
577,19	19352,49
577,39	19465,12
577,59	19232,06
577,78	19155,06
577,98	19261,97
578,18	19001,46
578,37	19251,73
578,57	19255,82
578,76	19184,55
578,96	19116,56
579,16	19220,19
579,35	19277,94
579,55	18956,41
579,74	18871,21
579,94	18707,78
580,14	18780,28
580,33	18803,22
580,53	18771,68
580,72	18738,09
580,92	18695,09
581,12	18519,78
581,31	18776,19
581,51	18901,93
581,70	18751,61
581,90	19043,24
582,10	18924,05
582,29	19016,21
582,49	18971,56
582,68	18983,85
582,88	19057,17
583,07	18995,32
583,27	19085,02
583,47	19158,34
583,66	19335,28
583,86	19206,26
584,05	19184,14
584,25	19284,08
584,44	19424,16
584,64	19270,16
584,84	19252,54
585,03	19276,30
585,23	19116,97
585,42	19317,26
585,62	19108,37
585,81	19337,33
586,01	19168,17
586,20	19180,87
586,40	19240,67
586,60	18946,58
586,79	19061,26
586,99	19053,07
587,18	18980,98
587,38	18824,11
587,57	18650,03
587,77	18820,83
587,96	18631,60
588,16	18523,06
588,35	18627,50
588,55	18682,80
588,75	18576,31
588,94	18629,55
589,14	18598,42
589,33	18355,12
589,53	18476,36
589,72	18144,18
589,92	18108,96
590,11	17811,18
590,31	17454,43
590,50	17294,28
590,70	16685,21
590,89	16476,73
591,09	16134,72
591,28	15995,86
591,48	16171,58
591,67	15985,22
591,87	16126,93
592,06	16346,07
592,26	16417,34
592,45	16517,28
592,65	16536,53
592,84	16750,34
593,04	16592,23
593,23	16586,09
593,43	16667,60
593,62	16549,64
593,82	16532,43
594,01	16381,29
594,21	16595,92
594,40	16638,11
594,60	16490,24
594,79	16563,15
594,99	16315,76
595,18	16674,15
595,38	16622,95
595,57	16726,99
595,77	16574,21
595,96	16387,03
596,16	16235,48
596,35	16168,71
596,55	16002,01
596,74	16176,09
596,94	16076,15
597,13	16149,87
597,33	16176,91
597,52	16074,51
597,72	16021,26
597,91	16310,43
598,11	16275,21
598,30	16088,43
598,50	16389,07
598,69	16072,46
598,88	16104,00
599,08	16043,38
599,27	16094,17
599,47	16030,68
599,66	16158,06
599,86	16042,15
600,05	15929,92
600,25	15945,89
600,44	15823,84
600,64	15921,73
600,83	15945,08
601,02	15937,70
601,22	15841,86
601,41	15752,57
601,61	15828,75
601,80	15623,54
602,00	15755,43
602,19	15521,15
602,38	15530,16
602,58	15515,00
602,77	15431,03
602,97	15365,91
603,16	15517,87
603,36	15172,99
603,55	15356,08
603,74	15032,09
603,94	15283,99
604,13	15297,10
604,33	15218,05
604,52	15175,45
604,72	15120,97
604,91	15116,88
605,10	15491,65
605,30	15200,84
605,49	15180,36
605,69	15331,50
605,88	15307,34
606,07	15333,14
606,27	15207,81
606,46	15170,94
606,66	15126,30
606,85	14926,01
607,04	15073,05
607,24	14821,56
607,43	14984,17
607,63	14835,90
607,82	14877,26
608,01	14980,89
608,21	14724,49
608,40	14761,35
608,60	14747,83
608,79	14708,10
608,98	14497,98
609,18	14728,99
609,37	14532,39
609,57	14250,18
609,76	14283,35
609,95	14160,07
610,15	14275,98
610,34	14219,87
610,53	14063,40
610,73	14112,14
610,92	14101,49
611,11	13960,18
611,31	13921,68
611,50	13800,85
611,70	13848,36
611,89	13736,14
612,08	13679,20
612,28	13616,94
612,47	13709,92
612,66	13688,62
612,86	13704,60
613,05	13563,29
613,24	13575,17
613,44	13603,43
613,63	13525,60
613,82	13477,27
614,02	13457,20
614,21	13314,66
614,41	13425,25
614,60	13347,02
614,79	13236,84
614,99	13242,99
615,18	13284,76
615,37	13087,34
615,57	13402,73
615,76	13056,62
615,95	13122,15
616,15	13211,45
616,34	13281,90
616,53	13178,68
616,73	13374,87
616,92	13281,90
617,11	13217,18
617,30	13122,56
617,50	13026,31
617,69	12972,24
617,88	12979,62
618,08	12886,23
618,27	13068,91
618,46	13032,86
618,66	12931,69
618,85	13081,61
619,04	13172,53
619,24	13305,24
619,43	13451,88
619,62	13446,55
619,82	13457,20
620,01	13421,98
620,20	13517,82
620,39	13367,50
620,59	13550,59
620,78	13447,37
620,97	13486,28
621,17	13636,60
621,36	13740,64
621,55	13729,99
621,74	13809,04
621,94	13888,10
622,13	13871,71
622,32	13785,70
622,52	13794,71
622,71	13733,68
622,90	13708,28
623,09	13889,32
623,29	13824,61
623,48	13723,03
623,67	13791,02
623,86	13641,11
624,06	13662,00
624,25	13698,86
624,44	13664,46
624,64	13476,45
624,83	13657,49
625,02	13311,80
625,21	13566,15
625,41	13562,47
625,60	13458,84
625,79	13446,14
625,98	13395,76
626,18	13478,09
626,37	13243,80
626,56	13218,82
626,75	13258,55
626,95	13242,58
627,14	13168,03
627,33	13172,13
627,52	13160,25
627,72	13170,08
627,91	13118,06
628,10	13299,92
628,29	13194,65
628,49	13208,99
628,68	13002,55
628,87	13009,11
629,06	12989,04
629,25	12761,30
629,45	12434,45
629,64	12378,33
629,83	12480,73
630,02	12324,27
630,22	12406,19
630,41	12492,61
630,60	12425,44
630,79	12357,85
630,98	12255,86
631,18	12285,35
631,37	12163,71
631,56	12255,04
631,75	12287,40
631,94	12282,49
632,14	12280,03
632,33	12232,52
632,52	12286,17
632,71	12189,92
632,90	12296,82
633,10	12172,31
633,29	12142,00
633,48	12141,59
633,67	11979,80
633,86	12185,00
634,06	12256,27
634,25	12242,76
634,44	12420,93
634,63	12264,47
634,82	12309,52
635,02	12238,25
635,21	12243,17
635,40	12206,30
635,59	12099,81
635,78	12309,52
635,97	12255,04
636,17	12047,79
636,36	12209,58
636,55	12173,13
636,74	12273,48
636,93	12157,15
637,12	12142,00
637,32	12262,83
637,51	12053,12
637,70	12121,11
637,89	12128,48
638,08	12259,55
638,27	12226,78
638,47	12115,37
638,66	12201,39
638,85	12008,88
639,04	12370,14
639,23	12010,93
639,42	12155,92
639,62	12191,97
639,81	12237,02
640,00	12188,69
640,19	12108,82
640,38	12037,14
640,57	12151,83
640,76	11957,68
640,95	12085,06
641,15	12003,96
641,34	11836,03
641,53	11926,55
641,72	11787,29
641,91	11778,28
642,10	11807,77
642,29	11672,19
642,49	11795,48
642,68	11619,36
642,87	11771,31
643,06	11737,32
643,25	11698,82
643,44	11520,23
643,63	11612,80
643,82	11620,58
644,01	11649,26
644,21	11631,23
644,40	11641,06
644,59	11506,72
644,78	11669,33
644,97	11312,16
645,16	11532,93
645,35	11482,14
645,54	11525,97
645,73	11415,38
645,92	11526,38
646,12	11417,84
646,31	11369,91
646,50	11396,13
646,69	11339,19
646,88	11198,70
647,07	11216,72
647,26	11106,54
647,45	11110,64
647,64	10999,23
647,83	11068,86
648,02	11050,84
648,22	10936,56
648,41	10883,73
648,60	10826,38
648,79	10630,19
648,98	10655,17
649,17	10593,32
649,36	10643,29
649,55	10420,47
649,74	10412,28
649,93	10402,86
650,12	10422,11
650,31	10349,21
650,50	10305,38
650,69	10272,61
650,88	10348,39
651,08	10058,39
651,27	10268,92
651,46	10189,05
651,65	10236,98
651,84	10276,71
652,03	10414,33
652,22	10366,41
652,41	10467,58
652,60	10412,69
652,79	10361,08
652,98	10139,49
653,17	10122,70
653,36	10178,40
653,55	10101,40
653,74	10227,97
653,93	10191,92
654,12	10116,15
654,31	10272,61
654,50	10266,88
654,69	10183,73
654,88	10179,63
655,07	10157,52
655,26	10149,32
655,45	10142,77
655,64	10085,84
655,83	10168,57
656,02	10035,46
656,21	9907,66
656,40	9812,64
656,59	9867,11
656,78	9585,31
656,97	9425,57
657,17	9225,69
657,36	9014,75
657,55	8643,66
657,74	8610,89
657,93	8522,42
658,12	8533,48
658,31	8635,47
658,50	8732,54
658,69	8928,73
658,87	9177,77
659,06	9120,01
659,25	9251,08
659,44	9363,31
659,63	9339,56
659,82	9426,80
660,01	9317,03
660,20	9455,06
660,39	9525,92
660,58	9549,68
660,77	9474,72
660,96	9478,82
661,15	9424,75
661,34	9552,14
661,53	9579,17
661,72	9502,17
661,91	9612,76
662,10	9559,10
662,29	9547,22
662,48	9631,19
662,67	9604,15
662,86	9506,67
663,05	9548,04
663,24	9747,10
663,43	9597,60
663,62	9444,41
663,81	9623,41
664,00	9484,55
664,19	9480,87
664,38	9417,38
664,57	9309,66
664,76	9353,89
664,94	9303,10
665,13	9397,72
665,32	9243,71
665,51	9387,48
665,70	9201,93
665,89	9294,50
666,08	9277,30
666,27	9226,51
666,46	9290,00
666,65	9154,01
666,84	9328,91
667,03	9251,08
667,22	9161,79
667,41	9210,13
667,60	9088,89
667,78	9023,76
667,97	9152,78
668,16	9020,89
668,35	9005,74
668,54	8925,46
668,73	8982,80
668,92	8944,30
669,11	9020,07
669,30	8864,43
669,49	8899,65
669,68	8869,75
669,86	8868,11
670,05	8903,75
670,24	8786,20
670,43	8798,07
670,62	8836,58
670,81	8787,42
671,00	8789,88
671,19	8715,75
671,38	8602,29
671,57	8744,01
671,75	8666,18
671,94	8536,75
672,13	8512,59
672,32	8601,88
672,51	8411,42
672,70	8557,23
672,89	8394,62
673,08	8319,67
673,26	8469,17
673,45	8293,86
673,64	8400,77
673,83	8351,21
674,02	8313,11
674,21	8412,24
674,40	8393,80
674,59	8361,45
674,77	8433,13
674,96	8267,24
675,15	8310,25
675,34	8267,24
675,53	8256,18
675,72	8156,24
675,91	8228,74
676,09	8118,15
676,28	8151,33
676,47	8126,75
676,66	8082,51
676,85	8156,24
677,04	8180,00
677,22	8037,05
677,41	7990,35
677,60	8064,49
677,79	7917,86
677,98	7919,50
678,17	7937,52
678,36	7963,73
678,54	7945,30
678,73	7848,23
678,92	7912,94
679,11	7941,61
679,30	7890,00
679,48	7975,61
679,67	7710,60
679,86	7861,74
680,05	7775,32
680,24	7826,11
680,43	7738,45
680,61	7657,36
680,80	7684,80
680,99	7747,88
681,18	7646,71
681,37	7666,78
681,55	7715,52
681,74	7566,43
681,93	7575,03
682,12	7573,80
682,31	7525,47
682,49	7593,05
682,68	7502,94
682,87	7520,55
683,06	7513,59
683,25	7419,79
683,43	7518,91
683,62	7320,26
683,81	7507,03
684,00	7394,81
684,19	7410,37
684,37	7346,88
684,56	7313,30
684,75	7274,79
684,94	7251,04
685,12	7141,27
685,31	7343,61
685,50	7243,67
685,69	7176,49
685,88	7169,12
686,06	7156,42
686,25	7133,08
686,44	7101,95
686,63	7111,78
686,81	7119,15
687,00	7074,91
687,19	7022,48
687,38	6816,46
687,56	6662,86
687,75	6392,94
687,94	5983,35
688,13	5572,52
688,31	5219,04
688,50	4938,47
688,69	4766,85
688,88	4923,32
689,06	4940,52
689,25	5045,79
689,44	5138,76
689,63	5125,25
689,81	5254,68
690,00	5235,43
690,19	5213,31
690,38	5121,56
690,56	5026,12
690,75	5059,71
690,94	5109,68
691,13	5246,90
691,31	5223,96
691,50	5340,28
691,69	5348,88
691,87	5491,42
692,06	5497,16
692,25	5544,26
692,44	5618,81
692,62	5626,59
692,81	5692,53
693,00	5695,81
693,18	5800,26
693,37	5858,01
693,56	5763,39
693,75	5831,80
693,93	5860,47
694,12	5839,17
694,31	5745,78
694,49	5793,29
694,68	5729,40
694,87	5677,38
695,05	5747,83
695,24	5697,45
695,43	5694,58
695,62	5725,71
695,80	5644,20
695,99	5672,05
696,18	5661,00
696,36	5708,10
696,55	5680,66
696,74	5675,74
696,92	5723,66
697,11	5717,11
697,30	5787,56
697,48	5815,82
697,67	5876,85
697,86	5819,10
698,04	5998,91
698,23	5973,92
698,42	6002,19
698,60	5860,88
698,79	5970,65
698,98	5956,31
699,16	5925,59
699,35	5890,78
699,54	5836,71
699,72	5813,77
699,91	5816,64
700,10	5726,53
700,28	5706,87
700,47	5618,81
700,66	5618,40
700,84	5638,47
701,03	5608,98
701,21	5481,18
701,40	5633,55
701,59	5524,60
701,77	5428,35
701,96	5519,69
702,15	5480,77
702,33	5391,48
702,52	5552,86
702,71	5401,31
702,89	5410,73
703,08	5425,07
703,26	5429,57
703,45	5386,57
703,64	5430,39
703,82	5444,32
704,01	5459,07
704,20	5502,07
704,38	5505,76
704,57	5439,81
704,75	5518,87
704,94	5452,51
705,13	5539,76
705,31	5551,22
705,50	5561,87
705,68	5547,54
705,87	5552,86
706,06	5404,18
706,24	5595,05
706,43	5505,76
706,61	5439,00
706,80	5474,22
706,99	5472,99
707,17	5430,80
707,36	5385,75
707,54	5389,84
707,73	5522,55
707,92	5497,57
708,10	5542,21
708,29	5527,47
708,47	5536,89
708,66	5516,41
708,84	5477,50
709,03	5414,01
709,22	5495,93
709,40	5386,98
709,59	5376,33
709,77	5350,11
709,96	5407,87
710,14	5432,85
710,33	5472,17
710,52	5376,74
710,70	5416,47
710,89	5426,30
711,07	5385,75
711,26	5391,07
711,44	5422,20
711,63	5395,58
711,81	5314,89
712,00	5337,83
712,19	5296,87
712,37	5258,36
712,56	5321,03
712,74	5266,97
712,93	5307,11
713,11	5244,85
713,30	5245,67
713,48	5245,26
713,67	5192,01
713,85	5151,87
714,04	5194,06
714,22	5196,52
714,41	5277,21
714,59	5226,83
714,78	5239,93
714,97	5240,75
715,15	5181,36
715,34	5174,40
715,52	5155,56
715,71	5044,56
715,89	4990,90
716,08	5089,61
716,26	5071,18
716,45	4925,77
716,63	5010,56
716,82	4861,06
717,00	4844,67
717,19	4811,50
717,37	4671,42
717,56	4566,56
717,74	4334,73
717,93	4293,77
718,11	4211,03
718,30	4068,49
718,48	3974,29
718,67	3900,15
718,85	3770,31
719,04	3673,24
719,22	3683,48
719,41	3532,75
719,59	3511,45
719,78	3431,99
719,96	3357,03
720,15	3363,99
720,33	3391,03
720,52	3262,82
720,70	3228,42
720,88	3193,19
721,07	3264,46
721,25	3310,34
721,44	3302,96
721,62	3377,92
721,81	3470,90
721,99	3553,23
722,18	3688,80
722,36	3826,02
722,55	3916,13
722,73	3964,46
722,92	4010,33
723,10	4057,85
723,28	4082,83
723,47	4000,09
723,65	4041,46
723,84	3968,14
724,02	3923,50
724,21	3765,80
724,39	3692,08
724,58	3642,52
724,76	3660,54
724,94	3507,76
725,13	3560,60
725,31	3458,20
725,50	3518,41
725,68	3439,36
725,87	3398,81
726,05	3363,99
726,23	3384,47
726,42	3329,18
726,60	3362,36
726,79	3407,82
726,97	3345,56
727,16	3375,46
727,34	3359,49
727,52	3363,17
727,71	3389,39
727,89	3447,14
728,08	3450,42
728,26	3364,40
728,44	3304,19
728,63	3321,40
728,81	3323,85
729,00	3285,76
729,18	3356,21
729,36	3346,38
729,55	3330,00
729,73	3410,69
729,92	3349,66
730,10	3359,08
730,28	3304,19
730,47	3317,30
730,65	3393,48
730,84	3413,96
731,02	3376,28
731,20	3404,54
731,39	3348,84
731,57	3318,12
731,75	3411,10
731,94	3424,20
732,12	3409,87
732,31	3294,77
732,49	3441,82
732,67	3452,88
732,86	3461,48
733,04	3526,19
733,22	3630,64
733,41	3579,03
733,59	3715,02
733,78	3715,02
733,96	3787,10
734,14	3725,66
734,33	3789,15
734,51	3792,84
734,69	3887,86
734,88	3867,79
735,06	3954,22
735,24	3866,16
735,43	3912,85
735,61	3888,68
735,79	3863,70
735,98	3869,84
736,16	3839,53
736,34	3819,87
736,53	3838,30
736,71	3794,89
736,89	3750,65
737,08	3716,24
737,26	3812,50
737,44	3737,54
737,63	3757,61
737,81	3799,80
737,99	3702,32
738,18	3747,78
738,36	3796,93
738,54	3784,65
738,73	3851,82
738,91	3803,49
739,09	3824,79
739,28	3788,33
739,46	3732,63
739,64	3733,04
739,82	3667,50
740,01	3663,00
740,19	3717,47
740,37	3746,14
740,56	3715,83
740,74	3758,84
740,92	3725,66
741,11	3842,40
741,29	3784,24
741,47	3782,60
741,65	3780,96
741,84	3745,73
742,02	3753,52
742,20	3743,28
742,39	3646,61
742,57	3702,32
742,75	3680,20
742,93	3703,96
743,12	3660,95
743,30	3714,61
743,48	3740,41
743,67	3687,57
743,85	3732,63
744,03	3676,92
744,21	3695,76
744,40	3712,15
744,58	3730,99
744,76	3714,61
744,94	3695,76
745,13	3674,88
745,31	3687,16
745,49	3626,95
745,67	3605,65
745,86	3644,16
746,04	3680,20
746,22	3706,82
746,40	3623,68
746,59	3609,75
746,77	3710,51
746,95	3599,10
747,13	3626,95
747,32	3578,21
747,50	3649,48
747,68	3623,27
747,86	3594,59
748,05	3574,52
748,23	3567,97
748,41	3572,07
748,59	3570,84
748,77	3522,92
748,96	3535,20
749,14	3521,28
749,32	3491,79
749,50	3533,16
749,69	3520,46
749,87	3448,78
750,05	3395,53
750,23	3446,73
750,41	3353,75
750,60	3473,36
750,78	3424,20
750,96	3473,36
751,14	3427,07
751,32	3344,74
751,51	3402,90
751,69	3424,20
751,87	3241,93
752,05	3292,31
752,23	3327,13
752,42	3290,27
752,60	3363,58
752,78	3347,20
752,96	3276,34
753,14	3287,81
753,33	3279,21
753,51	3261,19
753,69	3373,82
753,87	3275,52
754,05	3289,45
754,23	3256,27
754,42	3262,00
754,60	3293,95
754,78	3304,19
754,96	3215,31
755,14	3302,14
755,32	3311,57
755,51	3246,85
755,69	3258,32
755,87	3267,74
756,05	3259,14
756,23	3270,61
756,41	3228,01
756,60	3230,47
756,78	3219,41
756,96	3230,47
757,14	3226,78
757,32	3328,36
757,50	3266,10
757,68	3224,32
757,87	3238,25
758,05	3278,39
758,23	3220,23
758,41	3283,71
758,59	3198,52
758,77	3312,79
758,95	3268,97
759,14	3229,24
759,32	3200,57
759,50	3187,05
759,68	3170,67
759,86	2973,65
760,04	2736,50
760,22	2450,60
760,40	2136,44
760,59	1741,18
760,77	1452,42
760,95	1168,16
761,13	945,75
761,31	752,83
761,49	625,86
761,67	565,24
761,85	460,79
762,03	567,29
762,22	687,71
762,40	830,66
762,58	932,64
762,76	984,25
762,94	1081,33
763,12	1068,22
763,30	996,95
763,48	982,62
763,66	949,44
763,84	958,45
764,02	914,62
764,21	897,83
764,39	883,08
764,57	960,09
764,75	1036,27
764,93	981,39
765,11	1102,22
765,29	1200,93
765,47	1258,27
765,65	1335,28
765,83	1524,51
766,01	1497,07
766,19	1615,03
766,37	1800,16
766,56	1760,43
766,74	1959,50
766,92	2050,43
767,10	2163,47
767,28	2250,72
767,46	2352,71
767,64	2454,70
767,82	2588,22
768,00	2688,98
768,18	2736,09
768,36	2772,95
768,54	2845,04
768,72	2884,36
768,90	3052,70
769,08	3121,10
769,26	3041,23
769,44	3076,46
769,62	3147,73
769,80	3034,68
769,98	3225,14
770,16	3100,22
770,34	3156,33
770,52	3173,94
770,71	3212,44
770,89	3202,61
771,07	3242,75
771,25	3244,39
771,43	3200,98
771,61	3162,06
771,79	3166,98
771,97	3161,24
772,15	3251,76
772,33	3136,67
772,51	3113,32
772,69	3158,79
772,87	3110,45
773,05	3093,66
773,23	3151,82
773,41	3064,99
773,59	3125,20
773,77	3125,61
773,95	3180,09
774,13	3014,20
774,31	3076,05
774,49	3057,62
774,67	3018,30
774,85	2965,87
775,03	2976,52
775,21	3000,68
775,39	3034,27
775,57	2921,63
775,75	2951,12
775,93	2921,22
776,10	2883,13
776,28	2924,91
776,46	2922,45
776,64	2876,58
776,82	2853,64
777,00	2591,09
777,18	2905,66
777,36	2777,86
777,54	2912,62
777,72	2804,90
777,90	2816,78
778,08	2763,94
778,26	2793,02
778,44	2768,03
778,62	2731,17
778,80	2668,09
778,98	2668,09
779,16	2662,36
779,34	2693,08
779,52	2685,30
779,70	2604,61
779,88	2591,91
780,05	2640,24
780,23	2587,81
780,41	2561,60
780,59	2586,99
780,77	2576,75
780,95	2519,00
781,13	2541,53
781,31	2509,58
781,49	2501,39
781,67	2439,54
781,85	2531,70
782,03	2468,62
782,21	2503,44
782,39	2496,47
782,56	2445,68
782,74	2479,27
782,92	2456,74
783,10	2421,52
783,28	2476,40
783,46	2435,44
783,64	2431,76
783,82	2324,44
784,00	2380,15
784,18	2390,80
784,35	2364,99
784,53	2300,28
784,71	2259,73
784,89	2324,03
785,07	2290,45
785,25	2298,64
785,43	2323,22
785,61	2314,20
785,79	2358,44
785,96	2235,56
786,14	2260,96
786,32	2260,96
786,50	2202,80
786,68	2213,44
786,86	2164,29
787,04	2194,19
787,22	2193,37
787,39	2164,29
787,57	2214,67
787,75	2127,84
787,93	2119,24
788,11	2089,75
788,29	2118,83
788,47	2075,82
788,65	2095,48
788,82	2020,53
789,00	2025,03
789,18	2061,49
789,36	2011,51
789,54	2022,98
789,72	1986,53
789,89	1970,97
790,07	1901,74
790,25	1934,10
790,43	1927,96
790,61	1877,17
790,79	1961,54
790,96	1908,71
791,14	1875,94
791,32	1848,91
791,50	1825,56
791,68	1827,61
791,86	1847,27
792,03	1822,28
792,21	1853,00
792,39	1813,27
792,57	1818,19
792,75	1769,45
792,93	1778,05
793,10	1778,46
793,28	1770,26
793,46	1762,07
793,64	1756,34
793,82	1671,96
793,99	1744,87
794,17	1699,40
794,35	1785,42
794,53	1737,09
794,71	1769,04
794,88	1727,67
795,06	1705,96
795,24	1728,08
795,42	1754,29
795,60	1712,10
795,77	1753,06
795,95	1682,20
796,13	1698,59
796,31	1652,71
796,49	1656,81
796,66	1654,35
796,84	1615,85
797,02	1621,99
797,20	1648,21
797,37	1660,08
797,55	1615,03
797,73	1614,62
797,91	1694,90
798,08	1600,69
798,26	1660,08
798,44	1567,11
798,62	1624,45
798,80	1682,20
798,97	1642,47
799,15	1604,38
799,33	1640,83
799,51	1608,07
799,68	1587,59
799,86	1610,52
800,04	1613,39
800,22	1552,77
800,39	1552,36
800,57	1517,54
800,75	1533,93
800,93	1542,12
801,10	1463,48
801,28	1450,78
801,46	1514,27
801,63	1494,20
801,81	1458,15
801,99	1501,16
802,17	1480,27
802,34	1395,08
802,52	1427,84
802,70	1425,39
802,88	1420,88
803,05	1420,88
803,23	1375,83
803,41	1427,02
803,58	1424,16
803,76	1433,17
803,94	1415,15
804,12	1414,33
804,29	1339,78
804,47	1411,46
804,65	1431,12
804,82	1406,54
805,00	1380,74
805,18	1454,88
805,35	1411,05
805,53	1372,14
805,71	1343,88
805,89	1389,34
806,06	1362,31
806,24	1407,36
806,42	1373,78
806,59	1378,28
806,77	1384,84
806,95	1427,02
807,12	1418,42
807,30	1382,79
807,48	1387,70
807,65	1303,33
807,83	1335,28
808,01	1348,38
808,18	1363,13
808,36	1345,52
808,54	1311,52
808,71	1272,20
808,89	1235,74
809,07	1292,27
809,24	1353,30
809,42	1337,32
809,60	1286,94
809,77	1277,11
809,95	1267,28
810,13	1231,24
810,30	1219,77
810,48	1201,34
810,66	1236,56
810,83	1223,46
811,01	1215,67
811,18	1187,41
811,36	1224,28
811,54	1219,77
811,71	1148,91
811,89	1209,12
812,07	1168,98
812,24	1137,44
812,42	1200,11
812,59	1176,35
812,77	1110,41
812,95	1133,35
813,12	1131,71
813,30	1045,69
813,48	1051,84
813,65	1127,20
813,83	1023,17
814,00	971,97
814,18	1030,13
814,36	974,01
814,53	980,57
814,71	944,93
814,88	937,15
815,06	854,00
815,24	886,77
815,41	876,12
815,59	822,87
815,76	847,04
815,94	863,01
816,12	826,15
816,29	827,38
816,47	770,45
816,64	752,42
816,82	762,25
817,00	740,55
817,17	744,23
817,35	729,49
817,52	782,73
817,70	778,64
817,87	826,97
818,05	777,82
818,23	729,90
818,40	781,50
818,58	781,10
818,75	782,73
818,93	767,17
819,10	716,79
819,28	749,97
819,46	808,54
819,63	776,59
819,81	746,28
819,98	753,24
820,16	803,21
820,33	774,54
820,51	765,53
820,68	840,49
820,86	770,86
821,03	832,70
821,21	846,63
821,39	906,43
821,56	872,84
821,74	884,72
821,91	870,80
822,09	831,07
822,26	858,92
822,44	809,77
822,61	830,25
822,79	760,62
822,96	725,39
823,14	670,10
823,31	657,40
823,49	636,10
823,66	633,64
823,84	659,04
824,01	709,83
824,19	626,27
824,36	696,31
824,54	794,61
824,71	736,04
824,89	821,24
825,06	796,66
825,24	839,67
825,41	821,24
825,59	868,34
825,76	831,48
825,94	824,92
826,11	778,64
826,29	820,83
826,46	777,00
826,64	825,33
826,81	763,48
826,99	781,50
827,16	859,74
827,34	784,78
827,51	788,06
827,69	736,04
827,86	723,34
828,04	712,28
828,21	687,30
828,39	714,74
828,56	746,69
828,74	661,49
828,91	694,26
829,09	640,60
829,26	737,27
829,43	696,72
829,61	720,07
829,78	702,45
829,96	632,00
830,13	643,88
830,31	704,91
830,48	711,87
830,66	677,06
830,83	699,18
831,01	735,22
831,18	747,51
831,35	741,77
831,53	708,60
831,70	725,80
831,88	711,87
832,05	750,38
832,23	681,15
832,40	738,91
832,57	686,48
832,75	663,95
832,92	653,30
833,10	673,78
833,27	685,25
833,45	703,27
833,62	681,15
833,79	712,69
833,97	595,55
834,14	689,76
834,32	664,77
834,49	686,89
834,66	658,22
834,84	675,42
835,01	681,56
835,19	704,09
835,36	709,01
835,53	737,68
835,71	733,58
835,88	708,60
836,06	705,73
836,23	658,22
836,40	668,87
836,58	729,49
836,75	671,73
836,93	735,63
837,10	699,18
837,27	715,97
837,45	705,73
837,62	679,93
837,79	701,22
837,97	694,26
838,14	694,26
838,32	675,42
838,49	620,94
838,66	691,39
838,84	693,03
839,01	645,52
839,18	645,52
839,36	695,49
839,53	700,81
839,70	655,76
839,88	695,08
840,05	657,81
840,23	666,82
840,40	697,13
840,57	675,42
840,75	705,32
840,92	649,21
841,09	700,41
841,27	644,29
841,44	634,05
841,61	652,07
841,79	674,60
841,96	618,90
842,13	649,62
842,31	641,01
842,48	634,46
842,65	683,61
842,83	654,12
843,00	599,24
843,17	686,89
843,35	687,71
843,52	678,70
843,69	622,58
843,86	601,28
844,04	656,99
844,21	626,27
844,38	611,11
844,56	584,49
844,73	591,45
844,90	579,17
845,08	650,03
845,25	634,46
845,42	612,34
845,60	613,57
845,77	570,56
845,94	627,09
846,11	577,94
846,29	553,36
846,46	609,89
846,63	584,49
846,81	629,55
846,98	543,94
847,15	621,76
847,32	577,12
847,50	574,66
847,67	610,70
847,84	540,25
848,01	622,17
848,19	523,87
848,36	574,25
848,53	540,25
848,71	518,55
848,88	497,25
849,05	586,95
849,22	546,40
849,40	549,27
849,57	531,65
849,74	502,57
849,91	550,90
850,09	557,87
850,26	474,72
850,43	511,58
850,60	484,96
850,78	501,75
850,95	558,69
851,12	527,15
851,29	505,85
851,47	521,00
851,64	501,34
851,81	485,78
851,98	512,81
852,15	497,66
852,33	498,89
852,50	483,32
852,67	453,01
852,84	505,44
853,02	459,56
853,19	487,83
853,36	488,24
853,53	515,68
853,70	486,60
853,88	412,05
854,05	451,78
854,22	428,84
854,39	421,47
854,56	382,56
854,74	415,74
854,91	406,73
855,08	441,95
855,25	376,83
855,42	423,11
855,60	460,79
855,77	419,42
855,94	433,35
856,11	438,27
856,28	410,82
856,46	475,13
856,63	457,52
856,80	503,39
856,97	478,00
857,14	445,64
857,31	425,57
857,49	482,50
857,66	432,53
857,83	424,75
858,00	476,77
858,17	423,11
858,34	493,56
858,52	409,18
858,69	427,21
858,86	443,59
859,03	466,12
859,20	441,95
859,37	492,33
859,55	336,69
859,72	436,63
859,89	471,03
860,06	439,49
860,23	442,36
860,40	399,35
860,57	422,29
860,75	449,73
860,92	432,94
861,09	432,53
861,26	417,79
861,43	394,44
861,60	362,90
861,77	400,17
861,95	433,35
862,12	396,08
862,29	395,26
862,46	419,42
862,63	371,50
862,80	389,93
862,97	421,47
863,14	380,92
863,31	395,67
863,49	375,60
863,66	386,66
863,83	395,67
864,00	316,21
864,17	389,93
864,34	396,08
864,51	359,62
864,68	384,20
864,85	421,47
865,02	372,73
865,20	353,07
865,37	397,31
865,54	335,05
865,71	345,70
865,88	366,18
866,05	334,64
866,22	348,56
866,39	333,41
866,56	332,18
866,73	344,06
866,90	269,51
867,07	315,39
867,25	343,65
867,42	300,23
867,59	321,53
867,76	322,35
867,93	309,65
868,10	307,20
868,27	359,21
868,44	342,42
868,61	348,15
868,78	287,94
868,95	339,96
869,12	306,38
869,29	300,23
869,46	321,94
869,63	316,62
869,80	305,97
869,97	323,58
870,14	347,34
870,32	391,57
870,49	263,78
870,66	355,12
870,83	301,05
871,00	283,44
871,17	255,18
871,34	275,66
871,51	296,14
871,68	309,65
871,85	281,80
872,02	256,41
872,19	265,42
872,36	285,90
872,53	306,79
872,70	310,47
872,87	322,35
873,04	320,30
873,21	271,97
873,38	302,69
873,55	280,98
873,72	271,56
873,89	318,25
874,06	288,76
874,23	264,19
874,40	263,37
874,57	227,73
874,74	248,62
874,91	257,63
875,08	247,80
875,25	248,62
875,42	255,18
875,59	185,14
875,76	274,02
875,93	249,85
876,10	265,01
876,27	274,84
876,44	214,63
876,61	258,86
876,78	216,68
876,95	198,65
877,12	246,99
877,29	243,71
877,46	281,80
877,62	209,71
877,79	268,28
877,96	281,80
878,13	207,66
878,30	251,49
878,47	257,22
878,64	206,44
878,81	183,09
878,98	224,05
879,15	228,55
879,32	240,84
879,49	240,02
879,66	224,46
879,83	228,14
880,00	220,77
880,17	235,52
880,34	220,77
880,51	234,70
880,67	221,18
880,84	186,77
881,01	252,31
881,18	181,04
881,35	191,28
881,52	223,64
881,69	225,69
881,86	187,59
882,03	190,46
882,20	214,22
882,37	228,14
882,54	194,56
882,70	246,58
882,87	199,06
883,04	217,90
883,21	199,47
883,38	191,28
883,55	189,64
883,72	199,88
883,89	219,54
884,06	214,63
884,23	229,37
884,39	210,94
884,56	176,53
884,73	144,59
884,90	179,81
885,07	172,85
885,24	141,72
885,41	206,84
885,58	242,07
885,74	169,57
885,91	217,49
886,08	172,85
886,25	193,33
886,42	254,77
886,59	158,51
886,76	217,49
886,93	189,23
887,09	163,43
887,26	168,34
887,43	214,22
887,60	184,73
887,77	138,03
887,94	126,15
888,10	186,37
888,27	151,55
888,44	166,30
888,61	170,80
888,78	179,40
888,95	168,34
889,12	195,79
889,28	169,16
889,45	114,28
889,62	164,25
889,79	119,19
889,96	158,51
890,13	135,99
890,29	194,56
890,46	113,87
890,63	167,52
890,80	164,66
890,97	208,89
891,13	158,92
891,30	125,75
891,47	202,34
891,64	122,47
891,81	195,38
891,98	134,35
892,14	149,50
892,31	147,04
892,48	170,39
892,65	146,63
892,82	101,99
892,98	134,35
893,15	106,49
893,32	126,56
>>>>>End Processed Spectral Data<<<<<
